MLII
0.10912838
0.088257819
0.06694519
0.058159879000000005
0.07197604099999999
0.070855307
0.074547504
0.07800310099999999
0.061329065999999995
0.042164510999999995
0.04797365
0.06625407
0.134413389
0.26748189699999997
0.482949274
0.708490807
0.8691978659999999
0.805340921
0.539359563
0.225964921
0.054903522999999996
0.021188103
0.049972293
0.071365864
0.06534503
0.044318812
0.028192692000000002
0.017134781
0.023666171
0.01777609
0.021661302
0.022452042000000002
0.024699737000000003
0.018311552
0.023504287000000002
0.016288004
0.017800995
0.023311271
0.019743601
0.011406583999999999
0.007988344
0.014463698
0.033534858
0.025285009
0.04452427900000001
0.036349146
0.028223823
0.032650723
0.042120927
0.046603864
0.051043217
0.05548879599999999
0.062462252999999995
0.069448163
0.073893742
0.063340162
0.062705079
0.067094621
0.064031281
0.08092946200000001
0.087803299
0.08460920599999999
0.086377476
0.083183383
0.09005722
0.10689936400000001
0.128697645
0.14047780599999998
0.137184093
0.123940751
0.11570958
0.12251492800000001
0.12678617
0.123473778
0.120117802
0.10680597
0.09853121599999999
0.107789725
0.11450167800000001
0.118629716
0.115161666
0.10662540699999999
0.10566033
0.107254263
0.11632598400000001
0.12031704300000001
0.11178701099999999
0.100822494
0.09742916
0.111662485
0.11348679099999999
0.122801337
0.109663842
0.10153851900000001
0.098412916
0.105367694
0.11723502400000001
0.11651277300000001
0.100735326
0.09737935
0.103948098
0.110467035
0.111930216
0.105784856
0.10459563300000001
0.110952686
0.12734031099999998
0.138765574
0.150190836
0.158982373
0.162699475
0.174006438
0.17549452399999999
0.169921984
0.165127733
0.163932283
0.141343262
0.119314609
0.11668711
0.115099403
0.10461431199999999
0.100872305
0.084509585
0.080773805
0.07461599299999999
0.083388851
0.08948439999999999
0.085368815
0.066210486
0.057051597
0.11286416099999999
0.25613757600000003
0.481834766
0.7300711670000001
0.878462602
0.789800073
0.501516104
0.21333798199999998
0.067530462
0.049007216
0.07538805400000001
0.084341475
0.053446569000000006
0.025116898999999998
0.036704045
0.040850762
0.042494505
0.036573293
0.035421427000000005
0.036149904
0.03832911
0.024276348
0.026947431
0.030160202999999997
0.027408178
0.026088202
0.027900055
0.027264972999999998
0.026430647999999998
0.030589817999999998
0.034923323
0.044393527
0.04639217
0.045850482000000005
0.035284449
0.039798517
0.051902446
0.054087878
0.063844492
0.063558082
0.063196957
0.055308233
0.06491541599999999
0.079559676
0.084235628
0.083830919
0.070830402
0.065326352
0.074865045
0.08943459
0.113978669
0.11347433800000001
0.10541127800000001
0.099876097
0.106843328
0.123809998
0.130777229
0.12518601099999999
0.112029836
0.101357956
0.09823235300000001
0.105149774
0.11461997800000001
0.11151928
0.10831896099999999
0.090144388
0.089465721
0.091321159
0.100666837
0.104950532
0.10663786
0.10335659900000001
0.095088071
0.101731534
0.108381224
0.105056379
0.09675672
0.093543948
0.095418065
0.104844685
0.109327622
0.096389368
0.09597220599999999
0.095542591
0.092603777
0.09712407199999999
0.096619741
0.098493858
0.09028136699999999
0.094509025
0.093712058
0.117838975
0.126948054
0.125964298
0.127464837
0.131455896
0.145477526
0.177088457
0.181260079
0.182797975
0.164318313
0.151168365
0.14393963
0.140446675
0.133112092
0.11624504199999999
0.096115411
0.081944349
0.078999309
0.085536925
0.08704369
0.068657423
0.060195879
0.06650934900000001
0.065195599
0.06642840700000001
0.060158522
0.071260017
0.142214944
0.293040863
0.528787303
0.77707974
0.875598503
0.7145178659999999
0.38376429700000003
0.130484593
0.027090636
0.05111170599999999
0.090138162
0.079285719
0.050962275
0.030160202999999997
0.029400594
0.038677783
0.042961478
0.034705402999999996
0.033964472999999995
0.038316657000000004
0.030141524
0.036573293
0.042245452999999995
0.039219471
0.037444975
0.025241425
0.018790977
0.031274711000000004
0.03509766
0.03201564
0.028946074
0.025783113
0.032663176
0.047276305
0.057032917999999995
0.0467782
0.046435754
0.051130385
0.055930863
0.068290071
0.073208849
0.075487675
0.075188813
0.06489051
0.057138765999999994
0.06688915299999999
0.081614355
0.083774882
0.08585446599999999
0.082928105
0.07498957099999999
0.084615433
0.104271865
0.10645729699999999
0.111083439
0.120640811
0.117745581
0.11236605699999999
0.12191097599999999
0.116406926
0.11087797099999999
0.110348735
0.107372563
0.104377712
0.108823291
0.113250191
0.110224209
0.10470148
0.106662765
0.10362433
0.105510899
0.10731030000000001
0.10656937
0.108362545
0.112770766
0.11470092
0.11411564699999999
0.111039855
0.11054797699999999
0.092709624
0.085032595
0.099826286
0.114576394
0.119252346
0.098892341
0.088475739
0.095555044
0.10007533800000001
0.10695540099999999
0.113686033
0.10287094699999999
0.097068035
0.106314092
0.11554769699999999
0.124669228
0.136231469
0.142843801
0.139494051
0.153627754
0.167792589
0.179585204
0.184329645
0.17738109300000002
0.166678082
0.164635855
0.157786924
0.142383054
0.130341388
0.112216625
0.09618389999999999
0.095268634
0.08698765300000001
0.08617200800000001
0.087691225
0.07903044
0.07031361900000001
0.069093264
0.070319845
0.074012042
0.06276111599999999
0.086489549
0.18016425
0.356300083
0.6099658179999999
0.838751253
0.880342945
0.6822531740000001
0.37684065
0.136455616
0.045956329000000004
0.060289274000000004
0.08708104800000001
0.08643351199999999
0.040900572
0.022900336
0.029936056000000003
0.049418152
0.04634235900000001
0.038005342000000004
0.019040029
0.006606106
0.02050321
0.018585509
0.019295307
0.016188383
0.017047613
0.02141225
0.026144237999999997
0.033323164
0.032893549
0.037482333
0.029649646
0.02447559
0.026903847
0.031866209
0.041828291000000004
0.044275227
0.046672353
0.05405052
0.061484724000000004
0.068943833
0.06888157
0.068738365
0.073576201
0.068408371
0.065787098
0.068177997
0.06796630299999999
0.075219944
0.075002024
0.08726783699999999
0.099558555
0.10938365800000001
0.106631633
0.108817065
0.111083439
0.10837499800000001
0.110666276
0.102951889
0.09762217599999999
0.08717444199999999
0.096694457
0.098780268
0.095947301
0.10559806699999999
0.100181185
0.09472071900000001
0.09425997300000001
0.093793
0.10333792
0.112913971
0.10241020099999999
0.09180681
0.096190126
0.10559184099999999
0.10759671
0.10719200000000001
0.101843608
0.09399224199999999
0.091233991
0.08853177599999999
0.09589749
0.110797029
0.105635425
0.10289585300000001
0.095150334
0.092348499
0.099477613
0.10901008
0.113393396
0.120229875
0.12458206
0.113966216
0.120871184
0.150240647
0.16203948699999998
0.16875766600000003
0.17551942899999998
0.167362975
0.166727892
0.161099316
0.148123704
0.14063969
0.11673069400000001
0.109103475
0.10247869
0.098275937
0.09535580199999999
0.080885878
0.070375882
0.07700689299999999
0.078775162
0.070649839
0.07243056099999999
0.06388185
0.052711865
0.056516135
0.077841217
0.154113406
0.307766065
0.523762678
0.749796089
0.888586567
0.7927700190000001
0.512287605
0.224389667
0.066409728
0.030801512000000003
0.05268073400000001
0.077131419
0.05916854
0.041186982000000004
0.025646133999999998
0.01009906
0.014588223999999999
0.021667528
0.028809095
0.040844535
0.040022664
0.026063297000000003
0.016163478000000002
0.020185668
0.033385427
0.02418918
0.021032445
0.016823466000000002
0.018653998
0.033422785
0.038204584
0.035427652999999996
0.030153976000000002
0.025042183
0.027570061
0.047624977
0.060139843
0.042749784000000006
0.045346150999999994
0.045420867000000004
0.050489075999999994
0.06302262
0.068016114
0.07546277
0.077928385
0.077922159
0.075450317
0.070531539
0.075531259
0.08295301
0.09035608199999999
0.087828204
0.090331177
0.10289585300000001
0.12535412099999999
0.132738514
0.13263266699999998
0.122570964
0.117496529
0.11241586699999999
0.117328419
0.11719766599999999
0.112054742
0.104321676
0.09912894
0.109022533
0.113903953
0.108742349
0.106021456
0.10325697800000001
0.11053552400000001
0.12036685400000001
0.11524883400000001
0.11258397699999999
0.10234793800000001
0.09205586199999999
0.10176889199999999
0.109091022
0.118990841
0.111475696
0.10148870900000001
0.09397978900000001
0.096488989
0.106494655
0.11894725699999999
0.108854423
0.103618104
0.095853906
0.095555044
0.100199864
0.114781862
0.124283197
0.128747455
0.120752884
0.12526695300000001
0.13229022
0.164280956
0.17622922800000002
0.185612263
0.182548923
0.17720053
0.16986594800000002
0.16839031399999999
0.158035976
0.153683791
0.13479942
0.122664359
0.114084516
0.09925969300000001
0.10127078800000001
0.08817687699999999
0.080232117
0.08233660599999999
0.084329023
0.083706393
0.08046249
0.069547784
0.056111426
0.052662055
0.086695017
0.180693485
0.339619822
0.53338854
0.752130952
0.886127178
0.813123798
0.5729131
0.282817277
0.095094297
0.034767666
0.054430325
0.066683685
0.066484444
0.048739485
0.030932263999999998
0.028136655
0.032968265
0.022900336
0.027663456
0.027022147000000003
0.027974771000000002
0.025228972000000002
0.021368666
0.019600396000000003
0.023672397
0.019326438999999997
0.011263378999999999
0.011275831000000002
0.013791257
0.023659944
0.033609573999999996
0.023747112999999997
0.021437155
0.014152382
0.029425499
0.039817196
0.042774689000000005
0.043216755999999995
0.04854647
0.046348586
0.046641222
0.046958763
0.052288477
0.07005834
0.067767062
0.057948185
0.058159879000000005
0.068408371
0.07618502099999999
0.081402661
0.074074305
0.071764347
0.076950856
0.092111899
0.107266716
0.114881482
0.11988120199999999
0.122402854
0.112509262
0.112658693
0.117733128
0.11024288800000001
0.10267793199999999
0.097647081
0.09516901300000001
0.100193638
0.102709064
0.09523750199999999
0.09017551900000001
0.09753500699999999
0.10239774900000001
0.10227322300000001
0.10968874699999999
0.10963271
0.09953365
0.09197492
0.096980867
0.102148697
0.112378509
0.115186571
0.10297056800000001
0.09324508599999999
0.09353149599999999
0.09881139900000001
0.11394753699999999
0.106550691
0.104004134
0.093892621
0.09124644300000001
0.101071546
0.10838745
0.100666837
0.09783387
0.10747841
0.109732331
0.124482439
0.149194628
0.158857847
0.16840276699999998
0.165513763
0.16289249
0.16582507800000001
0.17464152100000002
0.16449265
0.150340267
0.11914027199999999
0.109831952
0.09919743
0.097229919
0.094509025
0.076564825
0.06614199700000001
0.06070021
0.072654708
0.084528264
0.07881252
0.065525593
0.054654470999999996
0.086234271
0.19028198899999998
0.394218257
0.653114085
0.86962748
0.896456612
0.671276205
0.34132582899999997
0.118754242
0.036000473
0.05313525400000001
0.082803579
0.062599232
0.034954455
0.029749267000000003
0.031984509
0.021729791000000002
0.01913965
0.018977766
0.018249289
0.033927115
0.023298819
0.021574133
0.015055196000000002
0.004949909000000001
0.011493752
0.023996165
0.031586026
0.026474232
0.018847014
0.011387905
0.024083333
0.039343997
0.042046212
0.044686163
0.037407617000000004
0.037750064
0.043154492999999995
0.063558082
0.063956565
0.056839903
0.05467315
0.05995928
0.067779514
0.078096495
0.07837045200000001
0.076079174
0.07626596299999999
0.071484163
0.069242695
0.081969255
0.099639497
0.107266716
0.11236605699999999
0.112471904
0.11264001400000001
0.11780784400000001
0.11542317099999999
0.10800142
0.10056099
0.10062325300000001
0.100722874
0.105834667
0.098412916
0.085941635
0.08591050300000001
0.09840046300000001
0.100940794
0.108406129
0.10580976199999999
0.095617307
0.092877734
0.092684719
0.095032034
0.107372563
0.11223530400000001
0.09217416199999999
0.097117845
0.097217466
0.102403975
0.11264624
0.102920758
0.09817009
0.095922395
0.08874347
0.09658861
0.104315449
0.10189341800000001
0.09681898300000001
0.10165681900000001
0.09897950900000001
0.09631465199999999
0.111108344
0.125814867
0.13791257
0.14252003300000002
0.13971819800000002
0.156977504
0.171671575
0.183794183
0.170930645
0.165762815
0.163764173
0.15791145
0.148410114
0.137308619
0.108437261
0.10315735699999999
0.096320879
0.086047482
0.09296490199999999
0.084982784
0.07948496
0.076216152
0.072816592
0.07447901400000001
0.076197473
0.05292356
0.08959647300000001
0.236169829
0.470278752
0.7494972259999999
0.921399174
0.8062375079999999
0.481342889
0.17391927
0.043845613
0.04866477
0.085941635
0.07828328400000001
0.050576244000000006
0.022856751
0.012689202
0.029886245
0.036579519
0.024830489
0.016779882
0.010192455
0.013529751999999999
0.020440947
0.023846733
0.023311271
0.030739249
0.023267687000000002
0.013218437
0.020702451
0.030776607
0.033453916
0.033653157999999996
0.023790697000000003
0.023927675
0.029157767999999997
0.049461736
0.059753812
0.05756838
0.050395681
0.048253834
0.051124159
0.061484724000000004
0.066770853
0.07199472
0.067169337
0.059859659
0.062617911
0.067829325
0.080437584
0.078040459
0.08317093099999999
0.09333848
0.096053148
0.11372961699999999
0.11884763599999999
0.11889744699999999
0.111407206
0.10645729699999999
0.10406639699999999
0.106681444
0.109190643
0.091657379
0.094073184
0.09407941
0.101631914
0.096682004
0.091688511
0.084104876
0.08641483400000001
0.091209085
0.09851876300000001
0.10582844
0.100666837
0.095467875
0.09026268800000001
0.095081845
0.09253528800000001
0.110049873
0.11015572
0.095249955
0.092815471
0.1030017
0.103294336
0.10859291800000001
0.111344943
0.10407885
0.099284598
0.086944069
0.089584021
0.114588846
0.124445081
0.12422716
0.126456176
0.131175712
0.145944499
0.165663194
0.19286590399999998
0.18508925399999998
0.16730693800000002
0.159505383
0.156684868
0.143852462
0.133828117
0.109676295
0.09924724
0.08261679
0.07655237299999999
0.08212491200000001
0.078470073
0.070930023
0.070388334
0.072411882
0.062069995999999995
0.071608689
0.06845818099999999
0.065064847
0.113984895
0.242925365
0.456873525
0.713229022
0.892148012
0.8488752190000001
0.60351537
0.303407655
0.11581542800000001
0.053129027999999995
0.055339365
0.077504997
0.064709948
0.041990175
0.026841583999999998
0.026673474
0.033958246
0.033715421
0.026025938999999998
0.023373533999999998
0.038117416
0.042525637000000005
0.028653438
0.021113387
0.019936616
0.015640468
0.02179828
0.029269842
0.033142601
0.027893829
0.017931746999999998
0.018000237
0.027987223999999998
0.043023741
0.035651800000000004
0.035838589
0.031156411000000002
0.031523762999999996
0.039480976
0.057437628
0.062879415
0.060768699
0.053614679000000005
0.053969578
0.064342596
0.079746465
0.085032595
0.07279791299999999
0.068047245
0.068371013
0.07369450000000001
0.09397356300000001
0.104209602
0.114426962
0.114644883
0.10988176300000001
0.107665199
0.11542317099999999
0.11313811800000001
0.105803535
0.098481405
0.098630836
0.093830358
0.10399790800000001
0.10410998099999999
0.09671936199999999
0.096856341
0.09948384
0.09712407199999999
0.09978270199999999
0.10237907
0.097410481
0.087404815
0.09742916
0.102559632
0.11015572
0.11269605099999999
0.102740195
0.09780273800000001
0.102908305
0.09567957
0.101059094
0.108860649
0.106594276
0.099321956
0.104527144
0.09726105
0.09989477599999999
0.10486959
0.109782142
0.092136804
0.09192511
0.10923422699999999
0.12156230300000001
0.126369008
0.126107503
0.13580808
0.13797483300000002
0.155203009
0.182480434
0.19975842
0.184865107
0.168209752
0.167705421
0.170924419
0.164897359
0.145894688
0.118013312
0.091209085
0.091072107
0.095754285
0.090555324
0.085437304
0.082703958
0.072274904
0.074205057
0.07869422
0.075742953
0.070207772
0.074528825
0.113704711
0.21027464199999998
0.38428108
0.6206937339999999
0.837101283
0.91869696
0.780672316
0.49053290899999996
0.23301932
0.085468436
0.045308793
0.050109272
0.069927588
0.062294142999999996
0.044798237000000005
0.03725196
0.027165352
0.022016201000000003
0.014432566
0.016954218
0.021985069
0.026642343
0.030496422999999998
0.020683772
0.009600955999999999
0.00033622
0.011443941000000001
0.018934182
0.015397643
0.005304809000000001
0.005416882
0.00046697300000000003
0.00562235
0.015964236
0.028964753
0.029444177999999998
0.022346195
0.027731945
0.035732742000000005
0.041261698
0.039250602
0.0471331
0.049972293
0.052836390999999996
0.05080039099999999
0.056229725999999994
0.05665934
0.059573249
0.05990947
0.057711585
0.068016114
0.073439222
0.06634123900000001
0.069174206
0.074491467
0.089795715
0.102621895
0.105485994
0.100772684
0.10854310800000001
0.103755082
0.096445405
0.104122434
0.10935252699999999
0.099571008
0.099726665
0.087411042
0.087566699
0.097784059
0.093052071
0.098275937
0.095878811
0.08601635
0.08368771400000001
0.08885554400000001
0.103985455
0.10661295400000001
0.111762105
0.091962468
0.08477731599999999
0.097759154
0.105797309
0.108692539
0.106494655
0.104359033
0.087280289
0.097640854
0.100380427
0.105454862
0.110386093
0.09790235900000001
0.09289641300000001
0.092859055
0.10530543099999999
0.122689264
0.127533326
0.11740936099999999
0.122265876
0.13460017800000001
0.15194665300000001
0.176808274
0.18691356
0.18517642199999998
0.18691356
0.189815017
0.18620998800000002
0.170270657
0.143391715
0.12502412699999998
0.110467035
0.092852829
0.08761028300000001
0.07990212299999999
0.08470882699999999
0.07197604099999999
0.076571051
0.083594319
0.093008486
0.074846366
0.06403750700000001
0.08568635599999999
0.179809351
0.363914849
0.605451749
0.851938559
0.961060713
0.82562621
0.5156560339999999
0.23335554
0.078382905
0.060681531
0.08794650400000001
0.070257582
0.040165869
0.022626378
0.035135017000000004
0.040116057999999996
0.040053795
0.017576848
0.017439869
0.021829412000000003
0.03526577
0.037438749
0.020864335
0.011350546999999999
0.007801555
0.001008661
0.010609617
0.025739529
0.02583915
0.025820471
0.003443145
0.008741727
0.011599598999999999
0.026910074
0.034724081000000004
0.032582234
0.03304298
0.038553257
0.039107397
0.05218263
0.05519616
0.06314092
0.058601945999999995
0.061584345
0.059573249
0.06251829
0.060426253
0.045794445
0.05367071599999999
0.061534534
0.069441937
0.069827967
0.077585939
0.08527542
0.098045564
0.100903436
0.10377998699999999
0.10661295400000001
0.101800024
0.086950295
0.09210567300000001
0.099795155
0.102603217
0.092977355
0.08574239300000001
0.075886158
0.08352583
0.086221818
0.08891158
0.081545866
0.08403638699999999
0.083949218
0.083874503
0.088905354
0.09408563699999999
0.096787851
0.096931056
0.09460864599999999
0.087392363
0.10279623199999999
0.100872305
0.09143323199999999
0.091931336
0.094944866
0.090468156
0.09346923300000001
0.098867436
0.099116488
0.104190923
0.101631914
0.09897328300000001
0.106357676
0.108798386
0.108754802
0.133554159
0.133392276
0.148223325
0.16062611699999998
0.185462832
0.182816654
0.172867025
0.16094365800000002
0.16750618
0.172867025
0.16935539100000002
0.148621808
0.11445186800000001
0.088650076
0.089004975
0.09129625400000001
0.086059934
0.083382625
0.07551880700000001
0.064934095
0.061746228
0.07103587
0.06788536099999999
0.062188296
0.108817065
0.227876395
0.444402244
0.7110000059999999
0.95025808
0.97234277
0.714835408
0.35506104899999996
0.11019307800000001
0.050165308
0.07505806
0.084957879
0.064896737
0.029786625
0.022215442000000002
0.02720271
0.034686724
0.041878101
0.028335896
0.021200555
0.007757971
0.001095829
0.007465335
0.012795049
0.012135061
0.012240908
0.010018119
0.007683255999999999
0.010298301999999999
0.022931467
0.02060283
0.018336457
0.021119613
0.026455554
0.034331824
0.044779558
0.035271996
0.038235715
0.036205941
0.049194005
0.06223188
0.065270315
0.07568069
0.06862629099999999
0.046578959
0.037040265
0.054953334000000006
0.067804419
0.070618708
0.070930023
0.07625351
0.0940296
0.10680597
0.11707936699999999
0.112322473
0.105062605
0.092827924
0.09561108
0.09589749
0.098630836
0.091321159
0.081508508
0.079260814
0.08947817400000001
0.092186615
0.087404815
0.087579152
0.082672827
0.080244569
0.08782197800000001
0.09790235900000001
0.112957555
0.115454302
0.097958396
0.083021499
0.08811461400000001
0.105753725
0.10849329699999999
0.111245322
0.094122994
0.09460864599999999
0.09773424900000001
0.09835065300000001
0.108823291
0.106712575
0.099633271
0.095081845
0.09800198
0.108287829
0.11087797099999999
0.11831840099999999
0.115759391
0.12569656699999998
0.133112092
0.148024083
0.162936075
0.172736273
0.18750505899999997
0.17980312399999998
0.184597376
0.186975823
0.177219209
0.165663194
0.15523414
0.13865972599999998
0.12060345300000001
0.114769409
0.08750443599999999
0.080997952
0.080935689
0.088139519
0.09045570300000001
0.077810085
0.079951933
0.064392406
0.058757604000000005
0.083021499
0.159729529
0.331369973
0.565360596
0.824306234
0.9284598
0.75561768
0.440647784
0.163259842
0.045657465999999994
0.045395962000000005
0.070151735
0.067486878
0.047431962
0.039954174
0.034954455
0.034885965
0.027271199
0.017271758999999998
0.014893311999999999
0.025048409
0.035010491
0.034568424
0.025901412999999998
0.011194889
0.00789495
0.016505923999999998
0.020584151999999998
0.02827986
0.014725202
0.012022988
0.019712469
0.022433362999999998
0.027545156
0.027713266
0.028049487
0.031044337
0.031654515
0.042295264000000006
0.045383509
0.048390812000000005
0.04388297
0.051877541
0.06489051
0.067953851
0.063433556
0.06383826599999999
0.059249482
0.059629286
0.060058901
0.073009607
0.085922956
0.09125889599999999
0.094054505
0.094459215
0.10244755900000001
0.115472981
0.11593372699999999
0.106314092
0.101588329
0.094403178
0.099795155
0.095281086
0.093220181
0.08602257699999999
0.073787895
0.076571051
0.091950015
0.09988232300000001
0.100224769
0.095499007
0.093257538
0.083550735
0.08886799599999999
0.09911026199999999
0.101812476
0.10196190699999999
0.10462053800000001
0.094876377
0.09027514
0.105753725
0.11382923699999999
0.11940800300000001
0.10996893099999999
0.100567216
0.09619635300000001
0.104290544
0.114819219
0.11019307800000001
0.102958116
0.103163584
0.09586013199999999
0.100940794
0.118467832
0.125976751
0.135957512
0.133479444
0.143466431
0.15845313800000002
0.17588678100000002
0.190792546
0.190898393
0.183980972
0.18802806800000002
0.185873768
0.177331283
0.154032464
0.12715974800000002
0.116176553
0.11648786800000001
0.108866875
0.096271068
0.088762149
0.08117851400000001
0.073451675
0.07314036
0.082772447
0.09232982
0.074285999
0.056130105
0.055445212
0.097304634
0.196682627
0.36351636600000004
0.600234109
0.8170090090000001
0.886643961
0.751726242
0.492108163
0.23749603100000002
0.092653587
0.05268073400000001
0.067760835
0.085406173
0.070593802
0.045763313
0.03083887
0.023498061
0.023691076000000002
0.033746552
0.035832363
0.024562757999999997
0.021985069
0.015821031
0.006961005
0.01890305
0.014750107
0.019394928
0.029637193
0.019924163999999998
0.015105007
0.022856751
0.033285806
0.031349426
0.024463137000000003
0.020061142
0.030670759
0.038877023999999996
0.049604941
0.052780355
0.050900012
0.04644198
0.039518332999999996
0.047581393
0.063153372
0.063682608
0.059137407999999995
0.0446239
0.047618750999999994
0.06314092
0.07118530099999999
0.06915552700000001
0.06455429
0.072436787
0.090380987
0.105840893
0.11631975800000001
0.11929593
0.11222907800000001
0.100112696
0.093008486
0.09096626
0.09892969900000001
0.101899644
0.09478298199999999
0.087585378
0.082853389
0.08817065
0.10603390800000001
0.103892061
0.09419771
0.091918884
0.082068875
0.087230479
0.09744783900000001
0.105193358
0.095418065
0.095604854
0.08835121300000001
0.088724791
0.09424752
0.09734821800000001
0.102926984
0.096009564
0.086601623
0.099639497
0.09011948300000001
0.087940277
0.085599188
0.088220461
0.095853906
0.10097192599999999
0.106009003
0.113468112
0.123355478
0.135720912
0.135621291
0.150601772
0.17312853
0.180593865
0.177935234
0.17028311
0.16294230099999998
0.151193271
0.147874652
0.128261804
0.10206152800000001
0.083451114
0.07150906900000001
0.078233474
0.081315493
0.078781388
0.061117372
0.053490153
0.058346668
0.070593802
0.08026947400000001
0.059859659
0.056796319000000005
0.10354338800000001
0.222658755
0.416695204
0.68316844
0.882254419
0.876638295
0.668835495
0.37133037399999996
0.131343823
0.04378335
0.063657703
0.078551015
0.06598011299999999
0.040931704
0.020939051
0.018454757
0.023410892000000003
0.023323724
0.015821031
0.010914706000000001
0.013598242
0.021119613
0.02811175
0.031586026
0.01629423
0.009949629
0.008573617
0.013274474
0.011979403000000001
0.019201913
0.011910914
0.012141286999999999
0.027277425
0.037444975
0.027644777000000002
0.022931467
0.025832922999999997
0.026318575
0.031859983
0.044953894
0.040514542
0.040969062
0.038839667
0.046691032
0.04957381
0.06251829
0.065425972
0.068240261
0.06098662
0.056316894000000006
0.061683965
0.069516652
0.084802222
0.095075618
0.100280806
0.100498727
0.10825047199999999
0.12099571
0.123710377
0.126456176
0.106662765
0.10181870300000001
0.10197436
0.097192561
0.092416988
0.092541514
0.09261000300000001
0.092684719
0.100230996
0.10280245800000001
0.100361748
0.095411839
0.090418345
0.100436464
0.10305151
0.105685236
0.10577863
0.10582844
0.093394517
0.085991445
0.08870611199999999
0.10399790800000001
0.109290264
0.102024171
0.099695534
0.09985119099999999
0.104994116
0.115062045
0.102528501
0.097373124
0.094658456
0.096949735
0.104222055
0.11144456400000001
0.11861103699999999
0.13075855
0.12294454199999999
0.120180065
0.129918
0.157045994
0.17921785199999998
0.194198333
0.18741166399999998
0.174267943
0.17738109300000002
0.166267146
0.159860282
0.132234184
0.118131612
0.105542031
0.087697452
0.072461693
0.074746745
0.08442241699999999
0.081514735
0.07103587
0.075537485
0.07754235400000001
0.07197604099999999
0.053770337
0.04548313
0.094639777
0.218723733
0.43513750799999995
0.6989209820000001
0.887714885
0.8393427520000001
0.576287755
0.26593777399999996
0.083096215
0.027675909
0.047170457
0.061702644
0.04890136900000001
0.043671275999999995
0.038416278
0.033254674
0.030589817999999998
0.025353498
0.010130192
0.012508638999999998
0.022476947
0.029867567
0.039331543999999996
0.032955812
0.015341606
0.019083613
0.024911431
0.029002111
0.019675111999999998
0.021655075
0.026710832
0.019382475
0.024525400000000003
0.034630687
0.039867006
0.040197000000000004
0.04809195
0.043540524000000004
0.041516976000000004
0.046946311
0.054797676
0.057618191
0.047967424
0.050787938
0.066104639
0.068894022
0.07414902
0.066914058
0.072200188
0.072536408
0.072822818
0.093027165
0.083251873
0.076023137
0.08625295
0.103979229
0.12173041400000001
0.126935601
0.134537915
0.122116444
0.112210399
0.11235983
0.11503714
0.120099123
0.115130534
0.10516845300000001
0.092771887
0.09290886599999999
0.095480328
0.093045844
0.10308886800000001
0.10559184099999999
0.10312
0.098219901
0.098294616
0.100853626
0.108287829
0.105722593
0.10571636699999999
0.105903156
0.111245322
0.09916007199999999
0.097030677
0.104832232
0.10513732099999999
0.100374201
0.11553524400000001
0.110622692
0.108076135
0.10043023699999999
0.107690105
0.107453505
0.10727916900000001
0.102130018
0.10444620199999999
0.10418469699999999
0.11143833800000001
0.126200898
0.150937992
0.155613944
0.160264991
0.162743059
0.18342683199999998
0.195325293
0.20104726399999998
0.197436009
0.195754908
0.175176983
0.140751764
0.13303737599999998
0.125129974
0.11485657699999999
0.10455204900000001
0.096694457
0.091290027
0.06832742900000001
0.072804139
0.089745905
0.09160134199999999
0.075836348
0.052562434000000005
0.07924836099999999
0.18329607899999997
0.384754279
0.648581337
0.8649639809999999
0.8942275959999999
0.6839405009999999
0.341437902
0.11128268
0.036006699999999996
0.040707557000000005
0.057929506
0.065220504
0.040134737000000004
0.025042183
0.022389779
0.027258746
0.027140447
0.024587663
0.024600116
0.024587663
0.026679700000000004
0.022931467
0.013044101
0.021997522000000002
0.020316421
0.016686487
0.017016481
0.006388185
0.016518377
0.026804226
0.022022427
0.022115822
0.029687004
0.029917377000000002
0.027844018999999998
0.04081963
0.043864292
0.051958483
0.052444135
0.050352097
0.053266006
0.066241618
0.071783026
0.072249998
0.065114657
0.065438425
0.06576841900000001
0.066098413
0.061434913
0.076801425
0.08216227
0.077455186
0.087647641
0.102877174
0.115653544
0.123448873
0.11866084699999999
0.108810839
0.101494935
0.096762946
0.096980867
0.09216170900000001
0.08978326199999999
0.09232982
0.09237963
0.08254207400000001
0.097703118
0.102877174
0.100480048
0.090567776
0.085655225
0.08573616699999999
0.08580465599999999
0.093307349
0.09328867
0.093307349
0.085941635
0.091202859
0.101507388
0.10183738099999999
0.104645443
0.09506939199999999
0.090542871
0.098549894
0.101575877
0.09954610300000001
