MLII
0.164885515
0.172313556
0.177289857
0.179869038
0.18724246100000003
0.187224255
0.18960923899999998
0.199203792
0.198948908
0.201218587
0.220632233
0.237563797
0.24461558100000003
0.249173145
0.261255849
0.256947099
0.261061652
0.251873699
0.24350501600000002
0.227647605
0.212979652
0.213774646
0.194221421
0.181713911
0.17410381100000002
0.166517984
0.15398620000000002
0.165662303
0.17484418699999998
0.164503189
0.151625491
0.145975568
0.132994702
0.158992845
0.255605925
0.43014668
0.672868838
0.8985866090000001
0.978456254
0.810251182
0.491209545
0.220868911
0.111165729
0.10614087800000001
0.142589255
0.144974239
0.142528568
0.12059035900000001
0.10595881800000001
0.10595881800000001
0.101116027
0.09357268099999999
0.10723930599999999
0.110030889
0.106638508
0.08801378800000001
0.074850863
0.092340743
0.0991073
0.08959770800000001
0.092328606
0.099738441
0.092504597
0.095168739
0.100484886
0.115541234
0.125688034
0.116415121
0.11210030300000001
0.117604578
0.140192134
0.148178491
0.136599487
0.129796518
0.127824203
0.138055965
0.155600464
0.16585650000000002
0.166354131
0.152183808
0.14528374
0.145757096
0.158422391
0.163720332
0.166554396
0.16450925800000002
0.16971616899999997
0.182254022
0.18750341399999998
0.18784932699999998
0.18085823
0.17868564899999997
0.16196042
0.17931679
0.182102305
0.182423945
0.177805694
0.173175305
0.161286799
0.166433023
0.174012781
0.176658717
0.169546246
0.164843034
0.16743435199999998
0.17492308
0.17755081
0.18263027899999998
0.190112938
0.178109127
0.175906203
0.181179869
0.193851233
0.189518209
0.19247971600000002
0.188219516
0.183916835
0.177223102
0.18753982600000002
0.195368398
0.19575679199999999
0.191181022
0.18657490899999998
0.18923905100000002
0.196758121
0.213950638
0.221348335
0.226215401
0.226270019
0.240980453
0.262991486
0.280068697
0.275231975
0.267901032
0.25830648
0.249300587
0.238880696
0.229668469
0.2092717
0.19139949399999998
0.184645074
0.18114345699999998
0.17654341199999998
0.17160352199999998
0.15689915699999998
0.154398869
0.156741372
0.161468859
0.15633477199999998
0.148645778
0.167586069
0.239942712
0.40720107299999997
0.6500567420000001
0.9002676279999999
0.987413597
0.811659111
0.497235725
0.234116797
0.11470982699999999
0.124365066
0.160868061
0.160916611
0.121986151
0.095241563
0.10261498599999999
0.112543315
0.10791292699999999
0.10324005800000001
0.100940036
0.09388825199999999
0.089415649
0.09939859599999999
0.108871775
0.11265862
0.10070942599999999
0.092589558
0.08893622400000001
0.085932237
0.09640067699999999
0.09833658
0.098524709
0.098913103
0.104186769
0.099726303
0.105066725
0.11536524199999999
0.113587125
0.11915208699999999
0.122338134
0.12798198800000002
0.131119486
0.134196297
0.137206353
0.12814584199999998
0.138590007
0.141721436
0.149732069
0.143074748
0.146060529
0.141776054
0.156996256
0.16741007800000002
0.17048688899999997
0.18080968100000003
0.178934465
0.17704104199999998
0.182514974
0.19772303800000002
0.19102323699999998
0.184226337
0.167713511
0.168277896
0.17131222699999998
0.17914686800000001
0.17235603600000002
0.17769038899999998
0.165911118
0.159023188
0.15706908
0.167349391
0.172726225
0.17803023399999998
0.16140210300000002
0.15208064
0.164721661
0.172623057
0.178109127
0.181094908
0.17673154100000002
0.167531451
0.173041795
0.16892117399999998
0.176950012
0.184954576
0.185579648
0.171530698
0.179383545
0.18475431
0.182727378
0.175778761
0.18578598300000002
0.16410265699999999
0.164308992
0.18398359
0.20359143300000002
0.211007337
0.211134779
0.216135355
0.23087006399999999
0.262633435
0.272592107
0.26841686800000003
0.25061141800000003
0.24869978899999998
0.255187188
0.259350289
0.245386301
0.222525655
0.200945497
0.17901335699999998
0.166942791
0.164758073
0.16981933600000002
0.16735546
0.167191606
0.154872224
0.14749273300000001
0.15237193599999999
0.157208659
0.139979731
0.137206353
0.185458275
0.284893283
0.459810294
0.702787336
0.911603886
0.9548977129999999
0.781643515
0.49653176
0.262651641
0.148111736
0.135883385
0.145629654
0.14572068400000002
0.131295477
0.10720896199999999
0.102651398
0.1029609
0.09596980199999999
0.093857908
0.101546902
0.10926017
0.112148852
0.10282132
0.10292448800000001
0.10236617099999999
0.091017775
0.097899636
0.10401077800000001
0.10558863
0.093785084
0.08347443
0.08144749700000001
0.094300921
0.10462371300000001
0.1148312
0.10805250599999999
0.113647811
0.121840503
0.12271439099999999
0.12105764599999999
0.11930380300000001
0.127271955
0.137722189
0.140896098
0.14652174699999998
0.154580929
0.147923608
0.138772067
0.136921126
0.149774549
0.15294239
0.160922679
0.159053532
0.157129766
0.147929676
0.153379334
0.17347873800000002
0.18874142
0.196654954
0.18987019100000002
0.18057907199999998
0.18344954800000002
0.181525783
0.189330081
0.194682639
0.18290336899999998
0.175948683
0.166615083
0.167058095
0.17477743199999998
0.17516582600000002
0.17543891600000003
0.17086314600000002
0.17369721
0.174176634
0.17949278100000002
0.17746584899999998
0.177860312
0.166159933
0.181380135
0.184499427
0.18026350100000002
0.175942615
0.176446314
0.179432095
0.180045029
0.178181951
0.183473823
0.173976369
0.174109879
0.16690031
0.164606356
0.17940782
0.184475152
0.19436099999999998
0.17979621399999998
0.16032795
0.167664961
0.199397989
0.22137261
0.236028426
0.22658558899999998
0.22988087199999999
0.25123649
0.256783246
0.268089161
0.262287521
0.25298426399999996
0.23739387399999998
0.215904746
0.19647289399999998
0.18438412199999998
0.17228928100000002
0.152821017
0.143007992
0.137977073
0.137782875
0.144810385
0.146885867
0.13916653
0.131483606
0.126228145
0.140368125
0.21521291899999997
0.377579939
0.605622007
0.853211232
0.95975871
0.830393067
0.55517323
0.277513791
0.123915985
0.104223181
0.138244094
0.150490651
0.13108914300000002
0.097043955
0.08490663400000001
0.085040144
0.09249246
0.09996905
0.100175384
0.09793604800000001
0.090641518
0.08523434099999999
0.08619319
0.09561782
0.096728385
0.093014365
0.078328205
0.072617595
0.08502800699999999
0.092892991
0.098160589
0.105655385
0.100970379
0.09405817400000001
0.092201164
0.100163247
0.11542592900000001
0.128176185
0.126203871
0.12179195400000001
0.127199131
0.130209187
0.14297158
0.15566115
0.14396684099999998
0.134675721
0.137558335
0.152645026
0.155497296
0.15584321
0.151328126
0.151692246
0.169085028
0.174316214
0.191684721
0.189554621
0.18734562800000001
0.18273344600000002
0.18301867300000002
0.1833039
0.185943768
0.17877061100000002
0.164248305
0.154593066
0.166906379
0.179243966
0.179371408
0.17945636899999998
0.164885515
0.157548504
0.155127108
0.164873377
0.17949278100000002
0.17695608100000002
0.176707266
0.159526887
0.15470230199999999
0.169534109
0.181999138
0.184657212
0.17025628
0.165674441
0.163556478
0.16395701
0.174097742
0.17682863899999998
0.18183528399999999
0.167246224
0.157463543
0.171967642
0.179086181
0.17637955800000002
0.17356370000000002
0.178072715
0.194779738
0.20179511
0.216141424
0.21098913100000002
0.222786608
0.23943294399999998
0.25621886
0.268647478
0.267385196
0.25513257
0.24397837100000003
0.22581486899999997
0.19946474399999997
0.196060225
0.19863940600000002
0.183589127
0.161226112
0.14623652
0.153100175
0.162221373
0.158950364
0.145775302
0.139888701
0.13165352800000002
0.12347297300000001
0.139633817
0.19721934
0.325450143
0.546228024
0.8035877920000001
0.966185422
0.8806415790000001
0.5980119070000001
0.283685619
0.108107124
0.083486567
0.11731328199999999
0.146309344
0.131513949
0.10449020199999999
0.084706368
0.081829823
0.090720411
0.101255606
0.110522451
0.10401077800000001
0.085125105
0.079450908
0.075524484
0.08028231400000001
0.085434607
0.083061761
0.08048864900000001
0.08039155
0.099932638
0.10741529699999999
0.100302826
0.102833458
0.105327677
0.10550366900000001
0.115486616
0.11821751300000001
0.13064613
0.133304204
0.12377033800000001
0.12151279599999999
0.138741724
0.153518913
0.163398693
0.163483654
0.146479266
0.141697162
0.146673464
0.156492557
0.166293444
0.17599116399999998
0.17830332399999999
0.180639758
0.18547648100000003
0.192783149
0.207360072
0.199974512
0.18761265
0.170353378
0.16776206
0.17983262600000002
0.189433248
0.189263325
0.18179280399999997
0.16457601300000002
0.157050874
0.16902434100000002
0.181028153
0.180803612
0.177987753
0.175117277
0.177210965
0.186653801
0.193657036
0.183631608
0.178521796
0.17110589199999998
0.166184208
0.16376281199999998
0.178333667
0.180773269
0.180846093
0.17131222699999998
0.169139646
0.181568263
0.17931679
0.17208294600000001
0.176901463
0.169430942
0.181434753
0.18366802
0.183358518
0.207287248
0.21412056
0.223435954
0.244973632
0.268932705
0.266104709
0.253487963
0.25049004399999997
0.24747998899999998
0.23003865699999998
0.205721533
0.19435493199999998
0.184195993
0.167938051
0.15703266800000001
0.15759705300000001
0.156577518
0.149216232
0.148439444
0.142759177
0.142085556
0.146321481
0.150369278
0.15430177
0.18983377899999998
0.29596252
0.499456855
0.771229693
0.967702587
0.950121677
0.6843204009999999
0.33336367699999997
0.111487368
0.08197547
0.12064497699999999
0.149550009
0.139506375
0.112494766
0.095296181
0.10246933800000001
0.114521698
0.12176161099999999
0.11180900699999999
0.106292594
0.107299992
0.114436737
0.110759129
0.10903562900000001
0.11278606099999999
0.10828918400000001
0.107700524
0.10299124300000001
0.108186017
0.11321693599999999
0.11327155400000001
0.11819930699999999
0.118375298
0.118666594
0.128813395
0.14383333
0.13695753800000002
0.134979154
0.142722765
0.14566606599999998
0.151079311
0.158920021
0.164254374
0.167112713
0.16748897
0.170365515
0.16840533800000002
0.166445161
0.166833555
0.181689637
0.18195665800000002
0.17988724399999997
0.192467578
0.20742682699999998
0.215000516
0.20791232
0.20083019300000002
0.196290835
0.20151595100000003
0.19451878600000003
0.18497885100000003
0.185063812
0.185154842
0.190112938
0.19757739100000002
0.200199052
0.19308658199999998
0.18591949300000002
0.17872813
0.183734775
0.19119315899999997
0.18889920600000001
0.18899630399999998
0.189020579
0.19393619399999998
0.196424345
0.194087911
0.20160091300000002
0.196976593
0.189985496
0.187994975
0.188559361
0.193960469
0.20908964
0.20720228699999999
0.19798399100000003
0.19107178600000002
0.18161681300000002
0.18187169600000003
0.189390767
0.19437920600000003
0.19436706899999998
0.20646191
0.216135355
0.225839144
0.23068800399999997
0.247662048
0.252401673
0.264460102
0.25956876100000004
0.254738107
0.255065815
0.253597199
0.241089689
0.22020742699999998
0.19762594
0.198954977
0.19146018
0.172598783
0.15046637699999998
0.14776582300000002
0.157390719
0.150017296
0.147377428
0.144585844
0.139281835
0.131520017
0.128588854
0.17429193899999998
0.273544887
0.467735965
0.7130979909999999
0.91960845
0.970475965
0.77812976
0.46179474600000003
0.21123187699999998
0.111548055
0.10918734599999999
0.136120062
0.13875993
0.12924427
0.114849406
0.10043633699999999
0.08851141800000001
0.09615186199999999
0.09894344599999999
0.098949515
0.105485463
0.10122526300000001
0.098257687
0.084803466
0.083826412
0.079196024
0.083262027
0.085847276
0.083856755
0.08428763
0.094410157
0.107026902
0.097887499
0.09124231599999999
0.099210467
0.109703182
0.125160061
0.133334547
0.129292819
0.125293571
0.118860791
0.12946881
0.14732281
0.160212646
0.158440597
0.154271427
0.152608614
0.148530474
0.151680109
0.15716617800000002
0.16261583599999999
0.160801306
0.15166797099999998
0.152195945
0.17457109699999998
0.187193912
0.18523373399999998
0.190543813
0.18599838600000002
0.18141047800000001
0.184147444
0.181932383
0.177174553
0.17472281399999998
0.169843611
0.162627973
0.15787014300000002
0.15787014300000002
0.169952847
0.164903721
0.157311826
0.154532379
0.156595724
0.165911118
0.18247856199999998
0.16983754199999998
0.152359799
0.154441349
0.161420309
0.17334522800000002
0.17307213800000001
0.15816143900000001
0.157809456
0.152608614
0.154678027
0.154228946
0.14882783800000002
0.153039489
0.14983523599999998
0.153870895
0.148087462
0.15195926699999998
0.15327009800000002
0.16186939
0.17295683399999998
0.176719403
0.18049411
0.186665938
0.202499075
0.22317500199999998
0.224461558
0.20660148899999997
0.203979828
0.192661775
0.187406315
0.161122945
0.14206128099999998
0.12435899800000001
0.112464422
0.11897609599999999
0.108064643
0.09717746599999999
0.09123624699999999
0.090186369
0.09880386699999999
0.09757799699999999
0.08890588099999999
0.075281738
0.088390045
0.171991917
0.345695195
0.5754607629999999
0.800395677
0.9157973309999999
0.807338225
0.5310988520000001
0.25990860600000004
0.10566752199999999
0.06833919
0.074838725
0.078935071
0.066045236
0.045933694000000004
0.035580558
0.034961555
0.031933293
0.021719737000000003
0.026259095
0.021143214
0.013405671999999999
0.005061263
0.007846778
0.007063921
0.017635528
0.023388619
0.010686912
0.0018266670000000001
0.006202170999999999
0.020730545
0.032825386
0.02533059
0.020317876000000002
0.032461267
0.049495998
0.054350925999999994
0.059333297
0.0595457
0.076847452
0.098979858
0.104004709
0.106626371
0.11658504300000001
0.138747793
0.156055613
0.156274085
0.146667395
0.154040818
0.163878117
0.178612826
0.188492605
0.203178765
0.215352498
0.2275323
0.23732711899999998
0.25204969
0.266820811
0.266923978
0.25476845
0.25472597
0.257183777
0.27670665899999997
0.288910736
0.284031533
0.276712728
0.293711047
0.300981302
0.300981302
0.29854776899999996
0.305872643
0.31073364
0.313167173
0.305854437
0.320413154
0.320376742
0.315455059
0.310557649
0.310496963
0.320158271
0.32261607800000003
0.31307614300000003
0.3109157
0.3062489
0.29669075899999997
0.309070827
0.30930143600000004
0.311917029
0.314326288
0.294669895
0.282241278
0.284383515
0.291483848
0.293668566
0.300677869
0.29791056
0.295167525
0.304628568
0.32381767300000003
0.338133644
0.347521862
0.357019317
0.342709414
0.334310388
0.329576832
0.335578738
0.319945868
0.29378387100000003
0.263865373
0.240033742
0.225341514
0.220292388
0.21769500100000003
0.21506120199999998
0.20265079100000002
0.192631432
0.187491276
0.189615308
0.174643921
0.157141903
0.149355812
0.197492429
0.33564549299999996
0.5588993879999999
0.80151231
0.946711089
0.8850595640000001
0.64344797
0.35558711299999995
0.170013533
0.10863509699999999
0.125281434
0.154247152
0.13702429300000002
0.10772479800000001
0.105327677
0.11033432300000001
0.100733701
0.088711684
0.076750353
0.09413099800000001
0.10430814199999999
0.092632039
0.083401606
0.076531882
0.069304107
0.08554384300000001
0.090696136
0.087285549
0.076477264
0.069389068
0.07872873700000001
0.08195119599999999
0.09034415400000001
0.09377901599999999
0.08986473
0.08611429699999999
0.08502800699999999
0.09133941400000001
0.10495142
0.11607527599999999
0.11261007
0.11890934
0.11556550800000001
0.11713729099999999
0.118666594
0.12017769
0.119297735
0.11110504199999999
0.112682894
0.11912781199999999
0.12561521
0.127199131
0.121397491
0.137473374
0.148791426
0.16019444
0.173958163
0.182739515
0.189038785
0.17346660100000003
0.16281003300000002
0.16670611300000002
0.185154842
0.171864475
0.158537695
0.142844139
0.149070585
0.167513245
0.176155018
0.177380887
0.17125154
0.160255127
0.156638205
0.165249634
0.173836789
0.167713511
0.17125154
0.167501108
0.163829568
0.172453135
0.183637677
0.18267882800000002
0.162118205
0.158537695
0.172004054
0.173339159
0.177028905
0.163495791
0.159581505
0.160412912
0.158689412
0.169145715
0.172331762
0.163331938
0.151819688
0.145125955
0.16032795
0.165789745
0.178436834
0.18856542899999998
0.191441974
0.189845917
0.20850704899999997
0.23806749600000002
0.259058993
0.268362251
0.250307985
0.245550154
0.22975343
0.22052906600000002
0.20138851
0.18232684600000001
0.158489146
0.141824604
0.137236696
0.13264272
0.135318999
0.140271026
0.123163472
0.11815682599999999
0.118065796
0.105788896
0.117738089
0.153949788
0.27044987
0.47455713899999996
0.756677044
0.9780739279999999
0.93433709
0.627851512
0.287332884
0.105078862
0.09326318
0.135058047
0.147699067
0.114072618
0.08773463
0.085701628
0.081265437
0.08425728699999999
0.082460963
0.083086035
0.083504773
0.083450155
0.080173078
0.082988937
0.091909868
0.08826260300000001
0.07808545900000001
0.076744285
0.0816599
0.08960984599999999
0.109715319
0.110182606
0.096097244
0.082212148
0.097644753
0.118059728
0.123909917
0.129754037
0.12085738
0.12168878699999999
0.132327149
0.14546579999999998
0.148791426
0.14712861300000002
0.138055965
0.138753861
0.149295125
0.155005735
0.16069207
0.161408172
0.15229304300000002
0.145562899
0.158373842
0.181009947
0.19627262899999998
0.20176476699999998
0.19740139899999998
0.188128486
0.17891019
0.18190204
0.18971240600000003
0.19494966
0.185555373
0.173757897
0.17414022199999998
0.18183528399999999
0.167610343
0.175262925
0.187734023
0.180682239
0.171215128
0.17633100899999998
0.178952671
0.176634442
0.176646579
0.176664785
0.186429261
0.18415351300000002
0.17708352300000002
0.172550233
0.175299337
0.173205649
0.168830144
0.174322282
0.177374819
0.177920998
0.16866629
0.161729811
0.17419484
0.174431518
0.174595372
0.17707138600000003
0.16969189399999998
0.17202832899999998
0.18409282600000001
0.210764591
0.222853363
0.23001438300000002
0.239566455
0.244233255
0.258634187
0.256097487
0.256249203
0.254616734
0.24192716399999997
0.218538545
0.198420934
0.187436658
0.182071962
0.170341241
0.157930829
0.14311116
0.145502212
0.143032267
0.145186642
0.14712861300000002
0.144142832
0.124079839
0.11858770099999999
0.125190404
0.177969547
0.286713881
0.46359106899999997
0.720817327
0.9416741009999999
0.953423028
0.73893228
0.41495075299999995
0.17372755399999998
0.09805742199999999
0.11501326
0.149143409
0.134615035
0.105358021
0.090599038
0.08808054300000001
0.090574763
0.095593545
0.103064067
0.09576953699999999
0.080743532
0.07463239099999999
0.079566212
0.090744685
0.091879525
0.088918018
0.082533787
0.075002579
0.08024590200000001
0.09282623599999999
0.110097645
0.110231155
0.098215207
0.088808783
0.10147407800000001
0.111784732
0.12941419199999998
0.129936097
0.130373041
0.12835217699999998
0.13364404900000001
0.141375523
0.14911913400000001
0.15442921199999998
0.149877716
0.14048949800000002
0.140908236
0.14368768199999998
0.153792003
0.163835636
0.16895758600000002
0.166748594
0.17429193899999998
0.181841353
0.196648885
0.20898040399999998
0.209113915
0.18982164199999998
0.185130567
0.17066894800000001
0.178084852
0.190361753
0.180609415
0.175669525
0.170759978
0.168362857
0.17329061
0.18056086600000001
0.177969547
0.172962902
0.16793198199999998
0.170201662
0.179747665
0.179480644
0.176767953
0.174085605
0.17152463
0.173921751
0.181216281
0.176403833
0.171676346
0.167015615
0.169631207
0.179565605
0.187048264
0.16770744199999998
0.167646755
0.165000819
0.169564452
0.164387885
0.16890903699999998
0.163647508
0.165595548
0.17489273600000002
0.189044853
0.203215177
0.214951967
0.21933354
0.226045479
0.24003981
0.251715914
0.251600609
0.24964650100000002
0.238929245
0.219715865
0.199015663
0.18783112100000002
0.180275639
0.17850965800000002
0.16842354399999998
0.145854194
0.13314641900000002
0.13031842300000002
0.142018801
0.156049545
0.152948459
0.140010074
0.12213786800000001
0.121336805
0.161936146
0.26574058899999997
0.46431324
0.701670702
0.8951214040000001
0.8964018909999999
0.6836528479999999
0.38579083799999997
0.16093481699999998
0.07968151700000001
0.095915184
0.126895698
0.128813395
0.11619058
0.098749249
0.08614464
0.083316645
0.085440676
0.092565284
0.097262427
0.092213301
0.09930149699999999
0.099083025
0.09898592699999999
0.09413099800000001
0.106171221
0.095702781
0.089118284
0.093596956
0.097116779
0.102936625
0.10723930599999999
0.100806525
0.102845595
0.10303372400000001
0.11305308300000001
0.122969274
0.13045193300000002
0.125815476
0.12116688199999999
0.121379285
0.12160989400000001
0.13165352800000002
0.15632263400000002
0.158998914
0.156777784
0.14239505800000002
0.140192134
0.155066421
0.17242886
0.17755687899999997
0.180233158
0.18531262699999998
0.187940357
0.202778233
0.212767249
0.215437459
0.215607382
0.20845243100000002
0.208598079
0.206358743
0.19432458800000002
0.19437920600000003
0.19435493199999998
0.18948179699999998
0.18954248399999998
0.187169637
0.199331234
0.201789041
0.206662176
0.204155819
0.196776327
0.19671564100000002
0.19913096800000002
0.189354355
0.194154666
0.194148597
0.19422749
0.20414975
0.20681996100000002
0.19975604
0.19754097899999998
0.190434577
0.195465497
0.20534527600000002
0.212724768
0.200532828
0.198002197
0.188146692
0.17823050000000001
0.187800778
0.20949624
0.20431360399999998
0.19663068
0.18898416699999998
0.183844011
0.193390015
0.21506120199999998
0.222034094
0.221639631
0.22372725
0.228563973
0.248705858
0.28207742399999997
0.309295368
0.30314781399999996
0.284553438
0.272045928
0.27276203
0.260400167
0.235579345
0.21819263100000003
0.203342618
0.18851081100000003
0.168751252
0.17815767600000001
0.17532968
0.170043876
0.15503001
0.15709942300000002
0.159205248
0.166196345
0.170790322
0.143711957
0.138432222
0.179371408
0.322531117
0.521607467
0.747398062
0.9195902440000001
0.904370043
0.682184232
0.39191411600000003
0.17965056699999998
0.101298087
0.117859462
0.14918588900000002
0.15150411800000002
0.132029785
0.11747106800000001
0.10780976
0.100594122
0.09340882699999999
0.10334929400000001
0.108568342
0.106504998
0.101935296
0.097256358
0.10236617099999999
0.09302043300000001
0.100703358
0.10312475300000001
0.107117932
0.109915585
0.10189888400000001
0.098512571
0.100940036
0.109691044
0.112355187
0.11306522
0.11132958300000001
0.12162809999999999
0.127041346
0.147213574
0.14555683
0.141399797
0.13724883300000001
0.14528374
0.133983894
0.144610119
0.160054861
0.156019201
0.156808127
0.152748193
0.153561394
0.17137291300000002
0.181883834
0.17048082
0.163950941
0.162275991
0.17276263600000002
0.19297734600000002
0.205848975
0.211413937
0.21206935300000002
0.207845565
0.20604924100000002
0.19695838699999998
0.19273459899999998
0.195714312
0.193766272
0.18702398899999997
0.19005832
0.19304410100000002
0.186247201
0.18431736699999998
0.17751439800000002
0.182921575
0.190853314
0.19638793300000001
0.18730921600000003
0.178260843
0.169188195
0.177168484
0.180427355
0.19843914
0.19448844199999998
0.195234888
0.183716569
0.177113866
0.189949084
0.190568087
0.191156747
0.184305229
0.17977194
0.177617565
0.180390943
0.190489195
0.18596197399999997
0.181367998
0.17434655699999999
0.174625715
0.17497769800000001
0.185075949
0.20231094600000002
0.20495688199999998
0.21037012800000002
0.214193384
0.22880065100000002
0.249361273
0.27543224
0.303584758
0.291562741
0.266037953
0.26154107600000004
0.25677717699999997
0.22537185699999998
0.201358166
0.18706647
0.170310897
0.165704784
0.165923256
0.158750099
0.149052379
0.144337029
0.144579776
0.149701725
0.157178315
0.14750487
0.137770738
0.162021107
0.271439062
0.466012465
0.723857726
0.923261784
0.9182005209999999
0.694121288
0.39220541200000003
0.180463767
0.110006615
0.129687282
0.144579776
0.135294725
0.104204975
0.090253124
0.10550973699999999
0.101322361
0.097141054
0.08808054300000001
0.08871775300000001
0.09675266
0.097626547
0.100970379
0.09931970300000001
0.09737166300000001
0.099726303
0.10364059
0.10149835199999999
0.10083686800000001
0.102815252
0.10852586199999999
0.103585972
0.10696014699999999
0.105734278
0.12625242
0.134505799
0.133067526
0.126871423
0.13046407
0.138960196
0.144974239
0.14850013
0.151965336
0.157924761
0.159089944
0.15788228
0.154143985
0.160018449
0.168344651
0.16454567
0.163210564
0.16913357699999998
0.18473610399999998
0.20267506600000001
0.201133626
0.18747307
0.18851081100000003
0.209010748
0.209975665
0.193808752
0.18733349100000002
0.178418628
0.171985848
0.187479139
0.188359095
0.189129815
0.182551386
0.180846093
0.17923182899999998
0.182496768
0.178467178
0.18655670300000002
0.179966137
0.175821242
0.186326093
0.19201849699999998
0.185561442
0.17902549399999998
0.182175129
0.187855396
0.18880817600000002
0.18996729
0.18880817600000002
0.185057743
0.183607333
0.184626868
0.18317039
0.191314533
0.189621376
0.173272404
0.169000067
0.172058672
0.18482713399999998
0.19270425600000002
0.17863103100000002
0.166967065
0.16500688800000002
0.18014819699999998
0.19777765600000002
0.215370704
0.230475601
0.23116136
0.23979706399999998
0.251970798
0.260545815
0.272343292
0.27162719
0.27207627100000004
0.251618815
0.22549323
0.20649832199999998
0.194937523
0.171227265
0.166833555
0.159872801
0.155351649
0.148445513
0.141521171
0.149082722
0.146806974
0.137206353
0.122708322
0.115504822
0.139852289
0.215261468
0.35396071100000004
0.560823153
0.806676741
0.9479855079999999
0.831497563
0.537434534
0.262930799
0.112616139
0.10108568300000001
0.143159709
0.153707041
0.135070184
0.106650645
0.092801961
0.091181629
0.104277799
0.112549384
0.113544644
0.10229334699999999
0.08828687800000001
0.078419235
0.096673767
0.113805597
0.106098397
0.09905268199999999
0.09590304699999999
0.09890096599999999
0.102530025
0.11596604
0.12194367099999999
0.11813255199999999
0.111948586
0.113223005
0.126816805
0.14042274300000002
0.144191381
0.147850784
0.141666818
0.14036205599999999
0.13916653
0.155042147
0.168435681
0.164715592
0.156085957
0.152347661
0.146194039
0.15462947800000001
0.17033517199999998
0.16649977800000001
0.172398517
0.17591834
0.184353779
0.20002913
0.210752453
0.204428909
0.19323222899999998
0.18443874
0.178090921
0.19119315899999997
0.18723032399999998
0.18565247199999999
0.181604675
0.17508693399999997
0.18076113100000002
0.176713335
0.17997220600000002
0.173448395
0.17423732100000003
0.175038384
0.175796967
0.18131338
0.186726625
0.17510514
0.170857077
0.166687907
0.17963236100000002
0.18293978100000002
0.183862217
0.17993579399999998
0.176051851
0.18438412199999998
0.183042948
0.184135307
0.18031205100000003
0.17148214899999997
0.164958339
0.165644097
0.17117264699999998
0.1790437
0.179553468
0.175135483
0.173120687
0.180797543
0.188504743
0.206043172
0.21136538800000002
0.223848623
0.22651883399999997
0.243863067
0.25166129600000003
0.245319545
0.24457310000000002
0.235209156
0.21722164600000002
0.202043925
0.193396083
0.17844897199999998
0.159824252
0.15031466
0.13595014
0.14366340800000002
0.14655209
0.144440196
0.144537295
0.134748545
0.12250805599999999
0.115140702
0.11751961699999999
0.144154969
0.22903126
0.39411704
0.620077557
0.8364253159999999
0.8874445479999999
0.700038233
0.386173163
0.155114971
0.074978305
0.099598862
0.136520594
0.132139021
0.105843514
0.081902647
0.06770198
0.06575394
0.076058526
0.09129693400000001
0.10166220599999999
0.097408075
0.08584120699999999
0.08134433
0.093481651
0.099975118
0.100430268
0.09249852800000001
0.08668475099999999
0.08895443
0.095138396
0.102608917
0.098439747
0.099174055
0.090022515
0.100351375
0.11088657099999999
0.121549208
0.122483782
0.128194391
0.126549784
0.124880903
0.128127636
0.138662831
0.146764493
0.157269345
0.157961173
0.15135847
0.13258203300000002
0.143001924
0.148524405
0.161292868
0.166742525
0.17710172899999999
0.185057743
0.185688884
0.191059649
0.19150873
0.187102882
0.182757721
0.178388285
0.17883736600000003
0.179250035
0.177156347
0.17017738699999999
0.170517232
0.168453887
0.17364259199999998
0.173848927
0.17395209399999997
0.161893665
0.162099999
0.169655482
0.17228928100000002
0.17236817399999999
0.177223102
0.167482902
0.152918116
0.162773621
0.17753260399999998
0.17773287
0.16093481699999998
0.161226112
0.156674617
0.166742525
0.169540178
0.17710172899999999
0.17719275899999998
0.160170165
0.150393553
0.15519386300000002
0.169685825
0.16947342199999998
0.16670611300000002
0.163914529
0.170899558
0.18765513
0.20441677100000002
0.20161911899999999
0.21333770300000002
0.22015280899999998
0.239165923
0.253536512
0.253839945
0.245349889
0.245295271
0.23158009699999998
0.212918965
0.19794757899999998
0.183922904
0.171366844
0.156104162
0.141029609
0.130998113
0.130621856
0.137412687
0.139227217
0.13115589800000002
0.122999618
0.117252596
0.11642118900000001
0.108252772
0.11211244
0.176682991
0.282629672
0.466552576
0.6992978559999999
0.8932037070000001
0.894933275
0.6825240770000001
0.385026186
0.163107397
0.087273411
0.108823226
0.130373041
0.132393905
0.100369581
0.085452813
0.08035513799999999
0.085034076
0.08000315599999999
0.089549159
0.086885017
0.084044884
0.078407098
0.081872303
0.086757575
0.08561059800000001
0.07904430700000001
0.075439523
0.080427962
0.08668475099999999
0.086399524
0.076592568
0.081350398
0.090932814
0.105467257
0.10552794300000001
0.10558256099999999
0.105546149
