0,1
-0.87,0.22
-1.02,0.04
-1.105,-0.105
-1.12,-0.22
-1.12,-0.25
-1.095,-0.255
-1.055,-0.22
-1.045,-0.195
-1.02,-0.16
-1.03,-0.135
-1.045,-0.14
-1.095,-0.15
-1.12,-0.165
-1.145,-0.18
-1.175,-0.195
-1.165,-0.215
-1.15,-0.2
-1.145,-0.175
-1.14,-0.19
-1.13,-0.18
-1.11,-0.19
-1.115,-0.19
-1.125,-0.205
-1.125,-0.19
-1.125,-0.2
-1.135,-0.2
-1.14,-0.21
-1.135,-0.215
-1.125,-0.195
-1.12,-0.19
-1.12,-0.17
-1.125,-0.155
-1.115,-0.165
-1.105,-0.18
-1.09,-0.18
-1.08,-0.18
-1.08,-0.18
-1.095,-0.18
-1.095,-0.16
-1.09,-0.17
-1.095,-0.165
-1.095,-0.16
-1.09,-0.15
-1.075,-0.155
-1.07,-0.16
-1.055,-0.165
-1.04,-0.175
-1.05,-0.18
-1.035,-0.175
-1.055,-0.17
-1.07,-0.18
-1.065,-0.18
-1.045,-0.175
-1.03,-0.175
-1.02,-0.16
-1.02,-0.15
-1.01,-0.155
-1.02,-0.165
-1.025,-0.18
-1.02,-0.18
-1.025,-0.19
-1.02,-0.21
-1.015,-0.21
-1.015,-0.22
-0.985,-0.215
-0.98,-0.205
-0.97,-0.195
-0.975,-0.18
-0.985,-0.18
-0.99,-0.17
-0.98,-0.185
-0.98,-0.2
-0.985,-0.21
-0.98,-0.205
-0.98,-0.22
-0.99,-0.22
-0.985,-0.225
-0.99,-0.21
-0.975,-0.185
-0.975,-0.17
-0.97,-0.17
-0.98,-0.18
-0.97,-0.2
-0.98,-0.195
-0.975,-0.205
-0.98,-0.2
-0.97,-0.195
-0.955,-0.19
-0.94,-0.19
-0.92,-0.18
-0.905,-0.165
-0.89,-0.15
-0.885,-0.125
-0.88,-0.13
-0.87,-0.14
-0.865,-0.145
-0.86,-0.13
-0.86,-0.12
-0.865,-0.1
-0.87,-0.09
-0.885,-0.095
-0.87,-0.085
-0.86,-0.065
-0.845,-0.045
-0.835,-0.025
-0.835,-0.025
-0.85,-0.035
-0.85,-0.045
-0.86,-0.035
-0.86,-0.025
-0.875,-0.025
-0.88,-0.025
-0.87,-0.035
-0.87,-0.05
-0.86,-0.015
-0.85,-0.01
-0.84,-0.015
-0.855,-0.015
-0.855,-0.03
-0.86,-0.03
-0.87,-0.025
-0.87,-0.03
-0.875,-0.02
-0.87,-0.025
-0.865,-0.03
-0.855,-0.03
-0.845,-0.01
-0.84,-0.02
-0.84,-0.005
-0.85,-0.01
-0.845,-0.02
-0.83,-0.03
-0.825,-0.015
-0.85,-0.025
-0.855,-0.03
-0.855,-0.045
-0.86,-0.03
-0.83,-0.01
-0.84,0.005
-0.84,-0.005
-0.82,0.015
-0.83,-0.01
-0.835,-0.01
-0.835,-0.01
-0.85,-0.02
-0.84,-0.025
-0.84,-0.03
-0.84,-0.035
-0.83,-0.015
-0.835,0.005
-0.835,0.015
-0.825,0.01
-0.82,0.0
-0.815,0.01
-0.825,0.02
-0.83,0.025
-0.83,0.005
-0.85,-0.01
-0.835,-0.015
-0.84,-0.015
-0.855,0.0
-0.855,0.02
-0.84,0.015
-0.83,0.0
-0.825,-0.005
-0.815,-0.005
-0.805,0.01
-0.81,0.01
-0.815,-0.01
-0.815,-0.01
-0.81,-0.005
-0.8,0.025
-0.8,0.04
-0.785,0.065
-0.78,0.07
-0.775,0.055
-0.755,0.05
-0.735,0.065
-0.72,0.07
-0.725,0.08
-0.71,0.06
-0.71,0.03
-0.695,0.04
-0.675,0.035
-0.67,0.035
-0.675,0.03
-0.675,0.03
-0.665,0.02
-0.66,0.025
-0.675,0.03
-0.7,0.045
-0.71,0.05
-0.74,0.035
-0.75,0.02
-0.76,0.005
-0.77,0.0
-0.77,0.01
-0.775,0.03
-0.79,0.05
-0.795,0.045
-0.805,0.035
-0.82,0.035
-0.845,0.04
-0.865,0.035
-0.885,0.025
-0.9,0.0
-0.9,0.0
-0.885,0.005
-0.87,0.015
-0.87,0.025
-0.87,0.04
-0.86,0.035
-0.86,0.025
-0.855,0.03
-0.85,0.035
-0.86,0.04
-0.88,0.03
-0.91,0.015
-0.915,0.005
-0.91,-0.005
-0.9,0.01
-0.885,0.025
-0.86,0.03
-0.8,0.025
-0.72,0.02
-0.605,0.025
-0.45,0.005
-0.245,0.0
-0.015,0.005
0.225,0.0
0.44,0.055
0.64,0.16
0.765,0.295
0.775,0.455
0.64,0.6
0.41,0.685
0.11,0.695
-0.22,0.63
-0.515,0.515
-0.73,0.34
-0.855,0.165
-0.91,0.025
-0.92,-0.075
-0.9,-0.1
-0.86,-0.07
-0.835,-0.01
-0.815,0.04
-0.82,0.07
-0.825,0.075
-0.85,0.06
-0.865,0.05
-0.88,0.04
-0.895,0.045
-0.91,0.02
-0.915,0.02
-0.9,0.005
-0.9,0.02
-0.895,0.04
-0.91,0.05
-0.895,0.07
-0.9,0.055
-0.895,0.045
-0.895,0.02
-0.9,0.03
-0.885,0.025
-0.89,0.01
-0.89,0.005
-0.885,0.01
-0.87,0.02
-0.875,0.035
-0.875,0.045
-0.88,0.06
-0.865,0.045
-0.865,0.015
-0.85,0.02
-0.845,0.03
-0.855,0.035
-0.86,0.025
-0.87,0.015
-0.86,0.005
-0.875,0.02
-0.87,0.02
-0.86,0.04
-0.84,0.045
-0.82,0.02
-0.825,0.005
-0.835,-0.005
-0.815,0.01
-0.795,-0.005
-0.805,0.0
-0.81,-0.015
-0.815,-0.01
-0.825,-0.005
-0.825,0.0
-0.815,0.03
-0.8,0.02
-0.795,-0.005
-0.79,-0.01
-0.785,-0.02
-0.77,-0.015
-0.775,-0.01
-0.765,0.0
-0.765,-0.02
-0.765,-0.05
-0.75,-0.055
-0.74,-0.04
-0.735,-0.025
-0.73,-0.01
-0.725,-0.025
-0.73,-0.035
-0.745,-0.045
-0.75,-0.06
-0.745,-0.07
-0.745,-0.065
-0.735,-0.06
-0.74,-0.065
-0.74,-0.065
-0.72,-0.05
-0.705,-0.035
-0.705,-0.02
-0.69,-0.025
-0.695,-0.035
-0.695,-0.05
-0.7,-0.05
-0.69,-0.02
-0.7,-0.02
-0.695,-0.015
-0.695,-0.02
-0.68,-0.025
-0.66,-0.035
-0.645,0.005
-0.625,0.02
-0.6,0.02
-0.59,0.02
-0.575,0.02
-0.575,0.03
-0.58,0.05
-0.59,0.07
-0.605,0.09
-0.61,0.085
-0.62,0.085
-0.62,0.105
-0.605,0.12
-0.605,0.135
-0.595,0.13
-0.59,0.105
-0.6,0.1
-0.59,0.09
-0.605,0.085
-0.615,0.09
-0.63,0.11
-0.65,0.105
-0.645,0.105
-0.635,0.12
-0.625,0.12
-0.61,0.13
-0.61,0.135
-0.6,0.115
-0.6,0.115
-0.605,0.12
-0.605,0.12
-0.61,0.125
-0.62,0.13
-0.615,0.105
-0.62,0.11
-0.61,0.115
-0.615,0.14
-0.605,0.15
-0.595,0.16
-0.6,0.13
-0.585,0.11
-0.595,0.11
-0.6,0.105
-0.61,0.11
-0.62,0.115
-0.615,0.105
-0.625,0.11
-0.61,0.105
-0.595,0.12
-0.59,0.125
-0.59,0.125
-0.585,0.12
-0.57,0.13
-0.585,0.115
-0.595,0.13
-0.615,0.145
-0.61,0.145
-0.63,0.135
-0.615,0.13
-0.6,0.13
-0.6,0.145
-0.585,0.155
-0.575,0.15
-0.575,0.13
-0.575,0.12
-0.605,0.12
-0.605,0.12
-0.61,0.12
-0.61,0.14
-0.605,0.13
-0.595,0.135
-0.59,0.125
-0.58,0.165
-0.575,0.17
-0.575,0.17
-0.59,0.165
-0.585,0.135
-0.58,0.12
-0.585,0.12
-0.58,0.14
-0.57,0.14
-0.56,0.145
-0.535,0.16
-0.52,0.17
-0.51,0.205
-0.495,0.22
-0.485,0.205
-0.475,0.19
-0.465,0.175
-0.465,0.17
-0.455,0.165
-0.435,0.17
-0.43,0.16
-0.42,0.14
-0.425,0.135
-0.415,0.155
-0.435,0.175
-0.425,0.175
-0.445,0.165
-0.46,0.14
-0.45,0.14
-0.475,0.135
-0.5,0.135
-0.515,0.115
-0.55,0.1
-0.545,0.105
-0.56,0.125
-0.565,0.165
-0.565,0.175
-0.57,0.155
-0.585,0.145
-0.59,0.135
-0.59,0.125
-0.6,0.135
-0.62,0.12
-0.635,0.13
-0.625,0.11
-0.63,0.125
-0.635,0.14
-0.63,0.145
-0.615,0.155
-0.615,0.145
-0.6,0.14
-0.61,0.145
-0.605,0.135
-0.63,0.13
-0.64,0.1
-0.655,0.075
-0.655,0.08
-0.615,0.11
-0.54,0.14
-0.425,0.145
-0.25,0.13
-0.03,0.11
0.205,0.105
0.455,0.125
0.705,0.175
0.9,0.27
1.005,0.38
0.985,0.5
0.83,0.63
0.58,0.73
0.255,0.77
-0.055,0.705
-0.32,0.56
-0.5,0.375
-0.61,0.215
-0.65,0.1
-0.645,0.035
-0.62,0.015
-0.59,0.04
-0.565,0.08
-0.57,0.13
-0.595,0.175
-0.63,0.18
-0.66,0.175
-0.685,0.15
-0.675,0.15
-0.66,0.155
-0.66,0.155
-0.65,0.15
-0.64,0.14
-0.645,0.12
-0.655,0.105
-0.655,0.115
-0.665,0.125
-0.655,0.14
-0.66,0.14
-0.65,0.145
-0.65,0.155
-0.64,0.165
-0.655,0.17
-0.66,0.165
-0.645,0.125
-0.645,0.11
-0.635,0.11
-0.63,0.12
-0.63,0.145
-0.63,0.15
-0.635,0.135
-0.63,0.125
-0.62,0.145
-0.625,0.135
-0.63,0.125
-0.625,0.095
-0.63,0.09
-0.625,0.085
-0.615,0.095
-0.615,0.11
-0.615,0.12
-0.605,0.135
-0.595,0.11
-0.585,0.13
-0.58,0.135
-0.58,0.145
-0.58,0.13
-0.58,0.115
-0.59,0.09
-0.6,0.085
-0.59,0.09
-0.59,0.1
-0.57,0.095
-0.565,0.085
-0.55,0.085
-0.56,0.07
-0.53,0.095
-0.54,0.085
-0.54,0.08
-0.54,0.065
-0.545,0.045
-0.54,0.04
-0.545,0.05
-0.555,0.065
-0.555,0.065
-0.535,0.06
-0.53,0.055
-0.505,0.055
-0.495,0.085
-0.495,0.09
-0.505,0.09
-0.495,0.07
-0.51,0.055
-0.52,0.065
-0.52,0.055
-0.53,0.065
-0.52,0.065
-0.51,0.065
-0.505,0.065
-0.48,0.085
-0.465,0.085
-0.43,0.11
-0.44,0.1
-0.43,0.085
-0.45,0.085
-0.445,0.11
-0.46,0.125
-0.455,0.15
-0.44,0.155
-0.44,0.14
-0.42,0.145
-0.405,0.16
-0.385,0.18
-0.39,0.205
-0.4,0.2
-0.4,0.195
-0.41,0.2
-0.425,0.18
-0.445,0.195
-0.445,0.215
-0.455,0.215
-0.45,0.225
-0.445,0.205
-0.435,0.215
-0.43,0.225
-0.415,0.24
-0.415,0.255
-0.42,0.24
-0.41,0.225
-0.425,0.205
-0.445,0.19
-0.46,0.21
-0.455,0.215
-0.46,0.215
-0.455,0.21
-0.455,0.2
-0.455,0.2
-0.435,0.205
-0.43,0.215
-0.425,0.205
-0.425,0.185
-0.42,0.18
-0.42,0.195
-0.425,0.205
-0.44,0.215
-0.44,0.22
-0.435,0.205
-0.425,0.2
-0.42,0.205
-0.41,0.205
-0.415,0.22
-0.415,0.225
-0.425,0.21
-0.43,0.19
-0.43,0.2
-0.435,0.21
-0.43,0.21
-0.43,0.225
-0.42,0.21
-0.41,0.2
-0.4,0.2
-0.4,0.225
-0.415,0.23
-0.425,0.235
-0.425,0.235
-0.425,0.21
-0.435,0.205
-0.425,0.205
-0.425,0.21
-0.43,0.235
-0.415,0.22
-0.42,0.21
-0.41,0.225
-0.42,0.24
-0.405,0.255
-0.415,0.25
-0.42,0.23
-0.43,0.21
-0.42,0.195
-0.42,0.205
-0.425,0.225
-0.42,0.235
-0.395,0.23
-0.37,0.235
-0.36,0.255
-0.35,0.265
-0.35,0.275
-0.35,0.275
-0.355,0.265
-0.345,0.265
-0.365,0.26
-0.335,0.275
-0.32,0.3
-0.305,0.3
-0.265,0.285
-0.24,0.27
-0.235,0.28
-0.23,0.28
-0.23,0.27
-0.225,0.255
-0.25,0.23
-0.26,0.215
-0.275,0.22
-0.285,0.235
-0.285,0.235
-0.3,0.225
-0.31,0.225
-0.31,0.215
-0.31,0.225
-0.33,0.245
-0.35,0.255
-0.37,0.265
-0.41,0.245
-0.415,0.235
-0.44,0.22
-0.445,0.22
-0.445,0.235
-0.45,0.22
-0.44,0.21
-0.435,0.21
-0.43,0.21
-0.43,0.24
-0.45,0.24
-0.465,0.24
-0.47,0.23
-0.48,0.225
-0.485,0.2
-0.465,0.215
-0.465,0.23
-0.465,0.24
-0.46,0.235
-0.46,0.225
-0.47,0.225
-0.47,0.225
-0.46,0.22
-0.445,0.225
-0.39,0.215
-0.3,0.205
-0.17,0.195
0.005,0.2
0.225,0.185
0.48,0.185
0.745,0.215
0.98,0.295
1.16,0.425
1.18,0.57
1.085,0.72
0.86,0.83
0.545,0.845
0.2,0.795
-0.09,0.68
-0.305,0.495
-0.435,0.33
-0.51,0.185
-0.52,0.105
-0.46,0.105
-0.425,0.155
-0.38,0.22
-0.39,0.245
-0.4,0.27
-0.425,0.235
-0.455,0.22
-0.475,0.215
-0.495,0.2
-0.5,0.215
-0.495,0.21
-0.48,0.205
-0.475,0.23
-0.46,0.24
-0.465,0.235
-0.475,0.235
-0.48,0.24
-0.485,0.215
-0.48,0.215
-0.47,0.225
-0.47,0.215
-0.48,0.225
-0.485,0.205
-0.47,0.2
-0.47,0.205
-0.47,0.225
-0.455,0.225
-0.465,0.215
-0.455,0.205
-0.455,0.185
-0.45,0.19
-0.45,0.2
-0.465,0.195
-0.465,0.2
-0.47,0.2
-0.455,0.2
-0.44,0.215
-0.435,0.23
-0.43,0.22
-0.435,0.215
-0.435,0.19
-0.435,0.185
-0.44,0.18
-0.435,0.19
-0.445,0.185
-0.435,0.175
-0.43,0.175
-0.41,0.18
-0.4,0.18
-0.395,0.2
-0.38,0.2
-0.395,0.175
-0.4,0.15
-0.4,0.14
-0.4,0.135
-0.395,0.145
-0.39,0.16
-0.38,0.165
-0.38,0.145
-0.375,0.135
-0.355,0.14
-0.35,0.155
-0.345,0.155
-0.345,0.165
-0.34,0.14
-0.34,0.135
-0.34,0.13
-0.355,0.12
-0.36,0.125
-0.365,0.145
-0.375,0.14
-0.37,0.145
-0.355,0.135
-0.35,0.145
-0.325,0.165
-0.335,0.16
-0.32,0.16
-0.325,0.135
-0.315,0.12
-0.315,0.125
-0.32,0.145
-0.33,0.145
-0.335,0.155
-0.33,0.155
-0.315,0.155
-0.29,0.16
-0.275,0.195
-0.285,0.225
-0.27,0.245
-0.27,0.225
-0.26,0.22
-0.245,0.21
-0.24,0.225
-0.245,0.25
-0.245,0.25
-0.245,0.26
-0.255,0.26
-0.245,0.275
-0.235,0.28
-0.235,0.3
-0.245,0.305
-0.25,0.29
-0.255,0.285
-0.255,0.275
-0.255,0.285
-0.26,0.295
-0.26,0.32
-0.26,0.32
-0.265,0.315
-0.26,0.3
-0.255,0.295
-0.25,0.295
-0.245,0.31
-0.255,0.3
-0.25,0.28
-0.265,0.27
-0.26,0.265
-0.265,0.275
-0.255,0.29
-0.255,0.3
-0.26,0.305
-0.26,0.3
-0.255,0.295
-0.26,0.305
-0.25,0.315
-0.245,0.32
-0.25,0.3
-0.255,0.285
-0.245,0.265
-0.25,0.255
-0.235,0.275
-0.235,0.285
-0.23,0.305
-0.225,0.3
-0.23,0.295
-0.225,0.29
-0.235,0.3
-0.225,0.3
-0.235,0.29
-0.26,0.27
-0.27,0.255
-0.29,0.275
-0.285,0.3
-0.27,0.31
-0.255,0.325
-0.24,0.31
-0.225,0.285
-0.215,0.28
-0.215,0.285
-0.235,0.29
-0.255,0.305
-0.27,0.275
-0.275,0.28
-0.265,0.28
-0.26,0.29
-0.255,0.305
-0.25,0.315
-0.235,0.31
-0.235,0.295
-0.23,0.275
-0.22,0.285
-0.22,0.305
-0.24,0.3
-0.245,0.3
-0.25,0.295
-0.24,0.28
-0.23,0.3
-0.215,0.32
-0.21,0.345
-0.195,0.35
-0.19,0.35
-0.18,0.31
-0.165,0.32
-0.155,0.34
-0.15,0.34
-0.15,0.34
-0.155,0.35
-0.14,0.345
-0.125,0.35
-0.095,0.355
-0.095,0.355
-0.085,0.37
-0.07,0.345
-0.07,0.305
-0.06,0.29
-0.065,0.29
-0.075,0.3
-0.085,0.31
-0.1,0.31
-0.11,0.295
-0.11,0.285
-0.115,0.295
-0.13,0.295
-0.145,0.305
-0.165,0.305
-0.185,0.3
-0.19,0.29
-0.2,0.28
-0.225,0.3
-0.24,0.29
-0.255,0.295
-0.26,0.285
-0.255,0.275
-0.275,0.28
-0.27,0.3
-0.27,0.315
-0.27,0.32
-0.27,0.315
-0.265,0.285
-0.275,0.275
-0.28,0.265
-0.295,0.28
-0.295,0.275
-0.305,0.275
-0.295,0.265
-0.285,0.275
-0.29,0.265
-0.285,0.285
-0.28,0.3
-0.3,0.28
-0.3,0.265
-0.29,0.26
-0.25,0.265
-0.17,0.285
-0.06,0.285
0.08,0.27
0.295,0.245
0.54,0.23
0.805,0.25
1.055,0.33
1.265,0.44
1.37,0.565
1.35,0.69
1.22,0.8
0.955,0.87
0.66,0.905
0.345,0.86
0.07,0.735
-0.135,0.56
-0.255,0.385
-0.315,0.25
-0.305,0.2
-0.285,0.19
-0.25,0.215
-0.23,0.245
-0.225,0.27
-0.23,0.28
-0.255,0.29
-0.32,0.29
-0.34,0.295
-0.355,0.265
-0.35,0.28
-0.34,0.275
-0.32,0.3
-0.3,0.305
-0.315,0.295
-0.305,0.27
-0.315,0.26
-0.32,0.255
-0.335,0.265
-0.355,0.27
-0.375,0.265
-0.375,0.265
-0.355,0.265
-0.34,0.285
-0.325,0.29
-0.335,0.29
-0.32,0.285
-0.325,0.275
-0.33,0.27
-0.325,0.28
-0.32,0.28
-0.32,0.28
-0.315,0.265
-0.31,0.255
-0.3,0.265
-0.3,0.265
-0.295,0.28
-0.285,0.28
-0.285,0.25
-0.285,0.25
-0.275,0.26
-0.275,0.255
-0.285,0.245
-0.29,0.24
-0.295,0.23
-0.3,0.235
-0.295,0.245
-0.295,0.26
-0.285,0.255
-0.285,0.24
-0.265,0.245
-0.265,0.245
-0.265,0.235
-0.26,0.22
-0.26,0.205
-0.255,0.18
-0.245,0.185
-0.24,0.195
-0.225,0.195
-0.225,0.185
-0.225,0.195
-0.21,0.2
-0.215,0.215
-0.21,0.205
-0.215,0.195
-0.21,0.17
-0.215,0.155
-0.2,0.165
-0.2,0.185
-0.21,0.18
-0.19,0.195
-0.215,0.2
-0.215,0.2
-0.21,0.225
-0.21,0.235
-0.21,0.24
-0.205,0.205
-0.195,0.18
-0.195,0.17
-0.195,0.19
-0.175,0.2
-0.17,0.22
-0.145,0.235
-0.145,0.255
-0.125,0.285
-0.125,0.31
-0.12,0.32
-0.13,0.32
-0.135,0.3
-0.125,0.3
-0.125,0.3
-0.12,0.32
-0.11,0.35
-0.125,0.345
-0.125,0.35
-0.12,0.335
-0.125,0.335
-0.135,0.35
-0.135,0.375
-0.145,0.38
-0.16,0.36
-0.165,0.34
-0.165,0.335
-0.145,0.35
-0.15,0.365
-0.14,0.355
-0.135,0.36
-0.145,0.35
-0.135,0.36
-0.125,0.36
-0.13,0.385
-0.135,0.37
-0.145,0.35
-0.145,0.335
-0.155,0.335
-0.145,0.34
-0.145,0.35
-0.145,0.365
-0.12,0.36
-0.125,0.365
-0.12,0.365
-0.105,0.365
-0.115,0.355
-0.125,0.385
-0.125,0.35
-0.145,0.345
-0.14,0.33
-0.135,0.33
-0.125,0.355
-0.115,0.365
-0.115,0.365
-0.11,0.36
-0.115,0.355
-0.11,0.365
-0.12,0.385
-0.12,0.385
-0.115,0.365
-0.135,0.34
-0.135,0.34
-0.14,0.34
-0.135,0.34
-0.145,0.365
-0.14,0.355
-0.13,0.35
-0.105,0.37
-0.1,0.36
-0.095,0.375
-0.11,0.38
-0.115,0.365
-0.115,0.34
-0.125,0.34
-0.13,0.345
-0.125,0.365
-0.135,0.37
-0.125,0.365
-0.12,0.355
-0.12,0.365
-0.1,0.375
-0.095,0.375
-0.09,0.395
-0.075,0.375
-0.075,0.36
-0.07,0.355
-0.065,0.365
-0.085,0.39
-0.085,0.425
-0.075,0.415
-0.07,0.41
-0.045,0.415
-0.01,0.415
-0.005,0.435
0.015,0.43
0.015,0.44
0.03,0.415
0.035,0.385
0.045,0.38
0.05,0.38
0.03,0.39
0.035,0.395
0.03,0.395
0.025,0.385
0.02,0.38
0.015,0.385
-0.005,0.38
-0.01,0.375
-0.02,0.35
-0.045,0.33
-0.07,0.32
-0.085,0.325
-0.09,0.355
-0.105,0.37
-0.11,0.39
-0.125,0.365
-0.125,0.36
-0.14,0.365
-0.135,0.37
-0.15,0.375
-0.165,0.365
-0.185,0.35
-0.185,0.34
-0.18,0.33
-0.17,0.335
-0.17,0.36
-0.165,0.365
-0.18,0.375
-0.18,0.365
-0.19,0.355
-0.175,0.36
-0.185,0.365
-0.19,0.36
-0.2,0.35
-0.21,0.325
-0.205,0.315
-0.2,0.315
-0.175,0.33
-0.155,0.365
-0.09,0.385
0.0,0.37
0.13,0.35
0.31,0.33
0.515,0.32
0.745,0.315
0.985,0.33
1.2,0.4
1.385,0.49
1.48,0.61
1.455,0.76
1.29,0.9
1.04,0.985
0.73,0.98
0.415,0.89
0.155,0.76
-0.04,0.565
-0.16,0.41
-0.22,0.3
-0.23,0.24
-0.21,0.23
-0.185,0.28
-0.15,0.345
-0.135,0.395
-0.155,0.425
-0.17,0.405
-0.185,0.365
-0.205,0.33
-0.225,0.33
-0.235,0.335
-0.24,0.33
-0.265,0.34
-0.26,0.335
-0.255,0.32
-0.245,0.335
-0.24,0.345
-0.22,0.36
-0.225,0.37
-0.21,0.35
-0.2,0.34
-0.21,0.33
-0.2,0.35
-0.2,0.345
-0.225,0.34
-0.23,0.325
-0.24,0.32
-0.235,0.325
-0.225,0.345
-0.21,0.365
-0.19,0.36
-0.195,0.34
-0.2,0.325
-0.185,0.315
-0.2,0.315
-0.2,0.315
-0.205,0.33
-0.215,0.325
-0.2,0.31
-0.175,0.31
-0.17,0.34
-0.175,0.355
-0.16,0.34
-0.17,0.315
-0.165,0.32
-0.17,0.32
-0.175,0.325
-0.175,0.33
-0.185,0.325
-0.185,0.31
-0.18,0.285
-0.16,0.29
-0.14,0.305
-0.13,0.325
-0.115,0.325
-0.135,0.305
-0.15,0.29
-0.14,0.275
-0.145,0.275
-0.145,0.27
-0.145,0.265
-0.145,0.255
-0.135,0.245
-0.115,0.27
-0.11,0.27
-0.09,0.29
-0.1,0.285
-0.095,0.28
-0.085,0.255
-0.085,0.24
-0.08,0.245
-0.09,0.25
-0.08,0.245
-0.095,0.245
-0.085,0.235
-0.09,0.24
-0.095,0.245
-0.08,0.27
-0.085,0.295
-0.075,0.27
-0.07,0.25
-0.055,0.23
-0.055,0.24
-0.05,0.24
-0.06,0.265
-0.055,0.27
-0.055,0.275
-0.04,0.285
-0.03,0.31
-0.01,0.335
0.015,0.355
0.015,0.36
0.03,0.35
0.035,0.33
0.03,0.335
0.015,0.345
0.01,0.355
0.005,0.38
0.0,0.385
-0.005,0.395
-0.01,0.415
-0.005,0.44
0.0,0.445
-0.01,0.425
0.0,0.41
-0.005,0.4
-0.01,0.395
-0.015,0.415
-0.025,0.41
-0.025,0.395
-0.035,0.395
-0.01,0.39
-0.015,0.41
-0.01,0.425
-0.005,0.43
-0.005,0.415
-0.015,0.4
-0.01,0.395
-0.02,0.4
-0.035,0.405
-0.025,0.38
-0.015,0.375
-0.01,0.385
0.015,0.41
0.01,0.43
0.01,0.44
0.0,0.445
-0.01,0.415
-0.005,0.405
-0.01,0.415
-0.025,0.42
-0.025,0.415
-0.045,0.415
-0.04,0.395
-0.025,0.39
-0.015,0.4
-0.01,0.42
0.01,0.425
0.01,0.42
0.01,0.4
-0.005,0.395
-0.015,0.41
-0.025,0.41
-0.03,0.435
-0.04,0.42
-0.045,0.4
-0.035,0.395
-0.01,0.4
-0.015,0.435
0.005,0.445
0.01,0.445
-0.005,0.42
-0.01,0.41
-0.015,0.41
-0.02,0.415
-0.03,0.42
-0.035,0.415
-0.035,0.405
-0.035,0.415
-0.025,0.41
-0.025,0.425
0.0,0.44
0.005,0.44
0.005,0.415
0.025,0.405
0.035,0.4
0.035,0.41
0.03,0.44
0.02,0.46
0.025,0.475
0.03,0.49
0.045,0.495
0.045,0.505
0.08,0.505
0.11,0.5
0.11,0.49
0.135,0.465
0.14,0.44
0.155,0.445
0.155,0.45
0.15,0.455
0.145,0.43
0.14,0.415
0.14,0.41
0.125,0.41
0.13,0.44
0.12,0.455
0.115,0.445
0.095,0.43
0.08,0.395
0.08,0.38
0.065,0.37
0.035,0.4
0.02,0.4
0.005,0.4
-0.01,0.41
-0.015,0.425
-0.04,0.445
-0.045,0.455
-0.045,0.45
-0.04,0.425
-0.055,0.39
-0.065,0.375
-0.075,0.36
-0.08,0.385
-0.095,0.385
-0.075,0.385
-0.085,0.38
-0.07,0.395
-0.065,0.4
-0.07,0.415
-0.065,0.435
-0.075,0.44
-0.08,0.405
-0.095,0.375
-0.1,0.36
-0.12,0.375
-0.125,0.365
-0.125,0.39
-0.105,0.375
-0.055,0.385
0.025,0.375
0.135,0.38
0.265,0.375
0.455,0.39
0.64,0.36
0.845,0.36
1.075,0.36
1.285,0.44
1.455,0.56
1.555,0.69
1.54,0.82
1.41,0.91
1.205,0.975
0.93,0.99
0.625,0.95
0.35,0.865
0.13,0.72
-0.025,0.56
-0.105,0.405
-0.145,0.29
-0.14,0.25
-0.105,0.28
-0.085,0.33
-0.08,0.39
-0.065,0.41
-0.08,0.4
-0.105,0.39
-0.115,0.39
-0.145,0.385
-0.15,0.375
-0.155,0.36
-0.155,0.36
-0.145,0.355
-0.145,0.38
-0.155,0.4
-0.165,0.4
-0.155,0.385
-0.155,0.375
-0.155,0.37
-0.155,0.375
-0.155,0.375
-0.15,0.37
-0.16,0.35
-0.15,0.34
-0.155,0.33
-0.15,0.355
-0.15,0.37
-0.145,0.38
-0.14,0.375
-0.13,0.355
-0.135,0.345
-0.135,0.36
-0.15,0.37
-0.15,0.36
-0.165,0.35
-0.15,0.33
-0.14,0.33
-0.145,0.335
-0.12,0.37
-0.125,0.37
-0.115,0.36
-0.105,0.36
-0.115,0.34
-0.125,0.31
-0.12,0.33
-0.13,0.335
-0.14,0.325
-0.145,0.32
-0.125,0.3
-0.115,0.29
-0.105,0.31
-0.095,0.33
-0.085,0.335
-0.09,0.325
-0.08,0.305
-0.09,0.29
-0.08,0.275
-0.08,0.285
-0.075,0.29
-0.085,0.28
-0.085,0.285
-0.085,0.28
-0.08,0.275
-0.085,0.29
-0.08,0.3
-0.075,0.3
-0.05,0.3
-0.04,0.265
-0.03,0.245
-0.045,0.25
-0.055,0.26
-0.065,0.275
-0.07,0.265
-0.065,0.25
-0.06,0.24
-0.045,0.275
-0.045,0.3
-0.03,0.31
-0.025,0.3
-0.02,0.28
-0.035,0.27
-0.035,0.275
-0.03,0.28
-0.04,0.295
-0.035,0.295
-0.03,0.28
-0.01,0.27
0.0,0.285
0.02,0.305
0.03,0.34
0.04,0.345
0.045,0.35
0.05,0.33
0.055,0.325
0.06,0.335
0.06,0.35
0.06,0.37
0.04,0.37
0.045,0.385
0.04,0.395
0.045,0.415
0.05,0.435
0.045,0.435
0.035,0.435
0.025,0.425
0.02,0.4
0.01,0.405
0.01,0.41
0.005,0.43
0.005,0.435
0.005,0.435
0.015,0.425
0.02,0.41
0.02,0.42
0.02,0.435
0.005,0.44
0.01,0.415
-0.005,0.405
0.005,0.385
0.01,0.4
0.015,0.415
0.02,0.425
0.02,0.43
0.02,0.43
0.025,0.425
0.035,0.44
0.03,0.45
0.035,0.435
0.025,0.425
0.015,0.39
0.005,0.38
0.0,0.39
0.005,0.4
0.01,0.405
0.02,0.41
0.02,0.405
0.03,0.42
0.04,0.425
0.035,0.455
0.045,0.465
0.02,0.435
0.02,0.42
0.005,0.405
0.0,0.405
0.005,0.425
0.0,0.425
0.01,0.425
0.01,0.43
0.025,0.435
0.04,0.44
0.03,0.445
0.025,0.425
0.025,0.42
0.02,0.405
0.015,0.4
0.0,0.415
-0.005,0.435
-0.005,0.425
-0.005,0.415
0.015,0.425
0.02,0.44
0.03,0.44
0.015,0.445
0.015,0.45
0.015,0.43
0.01,0.44
0.02,0.44
0.03,0.445
0.035,0.44
0.035,0.445
0.06,0.455
0.065,0.475
0.105,0.505
0.115,0.495
0.13,0.485
0.135,0.475
0.15,0.47
0.155,0.465
0.155,0.47
0.15,0.45
0.15,0.44
0.145,0.425
0.145,0.44
0.15,0.445
0.165,0.455
0.165,0.45
0.165,0.46
0.14,0.44
0.125,0.43
0.105,0.445
0.06,0.415
0.035,0.385
0.025,0.39
0.01,0.41
-0.005,0.43
-0.015,0.455
-0.025,0.445
-0.02,0.425
-0.025,0.415
-0.025,0.41
-0.035,0.41
-0.06,0.4
-0.065,0.385
-0.08,0.395
-0.085,0.405
-0.09,0.415
-0.07,0.435
-0.065,0.435
-0.065,0.43
-0.04,0.405
-0.05,0.4
-0.05,0.39
-0.065,0.375
-0.075,0.375
-0.09,0.36
-0.095,0.35
-0.075,0.37
-0.03,0.425
0.045,0.44
0.18,0.435
0.36,0.405
0.59,0.375
0.845,0.365
1.11,0.38
1.355,0.465
1.545,0.56
1.63,0.67
1.6,0.795
1.425,0.91
1.15,1.005
0.825,1.03
0.49,0.945
0.24,0.805
0.045,0.625
-0.065,0.455
-0.12,0.33
-0.105,0.285
-0.085,0.265
-0.04,0.29
-0.025,0.335
-0.03,0.39
-0.065,0.435
-0.085,0.445
-0.12,0.435
-0.135,0.385
-0.13,0.395
-0.135,0.395
-0.125,0.395
-0.13,0.38
-0.145,0.365
-0.145,0.345
-0.15,0.335
-0.155,0.365
-0.15,0.385
-0.16,0.405
-0.15,0.4
-0.14,0.395
-0.115,0.38
-0.115,0.37
-0.13,0.375
-0.125,0.36
-0.125,0.345
-0.135,0.345
-0.13,0.355
-0.13,0.38
-0.145,0.39
-0.13,0.405
-0.13,0.385
-0.11,0.375
-0.105,0.365
-0.09,0.37
-0.09,0.37
-0.095,0.37
-0.1,0.34
-0.105,0.32
-0.115,0.335
-0.125,0.33
-0.13,0.355
-0.13,0.365
-0.105,0.355
-0.095,0.345
-0.075,0.35
-0.075,0.355
-0.07,0.345
-0.07,0.345
-0.065,0.315
-0.075,0.29
-0.08,0.3
-0.075,0.315
-0.08,0.33
-0.08,0.335
-0.07,0.32
-0.06,0.31
-0.03,0.295
-0.03,0.29
-0.03,0.29
-0.03,0.295
-0.045,0.285
-0.05,0.265
-0.05,0.26
-0.045,0.26
-0.04,0.28
-0.03,0.285
-0.025,0.275
-0.02,0.285
-0.005,0.275
-0.01,0.275
-0.005,0.285
-0.015,0.285
-0.01,0.26
-0.01,0.235
-0.01,0.24
-0.02,0.25
-0.02,0.26
-0.04,0.28
-0.025,0.275
-0.015,0.27
0.0,0.28
0.01,0.275
0.035,0.29
0.03,0.285
0.05,0.265
0.05,0.26
0.06,0.265
0.06,0.295
0.06,0.32
0.05,0.36
0.06,0.395
0.065,0.405
0.07,0.405
0.065,0.405
0.065,0.43
0.065,0.425
0.05,0.405
0.045,0.395
0.035,0.4
0.045,0.4
0.035,0.43
0.025,0.43
0.035,0.43
0.035,0.42
0.045,0.425
0.04,0.415
0.03,0.425
0.02,0.435
0.005,0.43
0.0,0.405
0.005,0.4
0.02,0.395
0.03,0.415
0.035,0.44
0.035,0.43
0.045,0.42
0.05,0.42
0.05,0.41
0.045,0.42
0.04,0.42
0.025,0.42
0.02,0.405
0.02,0.39
0.025,0.395
0.02,0.4
0.02,0.415
0.025,0.43
0.045,0.42
0.05,0.415
0.055,0.415
0.06,0.43
0.04,0.43
0.02,0.43
0.02,0.415
0.03,0.395
0.02,0.405
0.03,0.41
0.025,0.435
0.04,0.43
0.05,0.43
0.06,0.42
0.045,0.41
0.04,0.415
0.04,0.415
0.03,0.42
0.025,0.41
0.025,0.405
0.02,0.385
0.01,0.41
0.02,0.425
0.025,0.43
0.03,0.435
0.04,0.42
0.045,0.42
0.035,0.43
0.04,0.44
0.025,0.435
0.035,0.43
0.035,0.405
0.025,0.395
0.03,0.425
0.025,0.435
0.025,0.445
0.035,0.44
0.055,0.45
0.075,0.45
0.085,0.46
0.105,0.475
0.11,0.475
0.12,0.47
0.12,0.465
0.115,0.465
0.115,0.485
0.125,0.52
0.15,0.52
0.165,0.51
0.18,0.49
0.205,0.49
0.205,0.485
0.205,0.49
0.18,0.465
0.175,0.445
0.17,0.425
0.165,0.41
0.165,0.425
0.155,0.445
0.15,0.44
0.135,0.435
0.125,0.425
0.115,0.41
0.095,0.415
0.065,0.415
0.03,0.44
0.025,0.415
0.015,0.42
0.005,0.425
0.0,0.41
-0.005,0.42
-0.02,0.44
-0.01,0.43
-0.005,0.41
-0.01,0.41
-0.02,0.405
-0.025,0.415
-0.03,0.4
-0.04,0.385
-0.035,0.37
-0.035,0.385
-0.04,0.39
-0.025,0.42
-0.035,0.415
-0.025,0.39
-0.03,0.375
-0.07,0.375
-0.075,0.375
-0.05,0.39
0.0,0.39
0.12,0.38
0.295,0.385
0.51,0.37
0.765,0.355
1.04,0.385
1.325,0.45
1.55,0.555
1.67,0.695
1.625,0.845
1.44,0.96
1.145,1.015
0.79,0.98
0.46,0.87
0.175,0.72
0.0,0.555
-0.085,0.395
-0.105,0.285
-0.075,0.26
-0.04,0.3
0.0,0.355
0.0,0.4
-0.015,0.425
-0.045,0.4
-0.07,0.385
-0.1,0.355
-0.125,0.36
-0.135,0.355
-0.145,0.355
-0.12,0.365
-0.11,0.375
-0.095,0.4
-0.095,0.405
-0.095,0.405
-0.115,0.39
-0.13,0.35
-0.125,0.365
-0.13,0.37
-0.13,0.385
-0.135,0.385
-0.115,0.38
-0.11,0.38
-0.095,0.38
-0.095,0.39
-0.085,0.38
-0.095,0.355
-0.085,0.355
-0.08,0.335
-0.07,0.34
-0.085,0.34
-0.085,0.36
-0.1,0.345
-0.105,0.335
-0.1,0.345
-0.09,0.38
-0.08,0.385
-0.07,0.39
-0.075,0.37
-0.065,0.35
-0.07,0.33
-0.065,0.31
-0.08,0.34
-0.085,0.34
-0.095,0.335
-0.085,0.315
-0.08,0.315
-0.075,0.33
-0.05,0.34
-0.035,0.33
-0.03,0.305
-0.015,0.28
-0.02,0.275
-0.02,0.295
-0.035,0.285
-0.035,0.27
-0.04,0.255
-0.04,0.265
-0.035,0.27
-0.035,0.295
-0.035,0.295
-0.015,0.28
-0.005,0.255
-0.005,0.25
-0.005,0.26
0.005,0.25
0.0,0.245
-0.005,0.24
-0.01,0.225
-0.02,0.245
-0.015,0.275
-0.015,0.285
0.0,0.285
-0.005,0.27
0.015,0.265
0.02,0.26
0.015,0.275
0.015,0.27
0.01,0.27
0.025,0.265
0.025,0.265
0.045,0.275
0.065,0.31
0.05,0.335
0.075,0.34
0.085,0.35
0.09,0.34
0.095,0.35
0.095,0.365
0.095,0.38
0.085,0.385
0.08,0.385
0.075,0.38
0.07,0.39
0.07,0.415
0.065,0.435
0.065,0.435
0.07,0.425
0.06,0.415
0.075,0.42
0.05,0.42
0.04,0.43
0.045,0.42
0.045,0.405
0.035,0.39
0.045,0.385
0.04,0.4
0.06,0.41
0.055,0.43
0.05,0.415
0.05,0.39
0.04,0.4
0.04,0.395
0.025,0.4
0.015,0.385
0.03,0.37
0.035,0.375
0.04,0.385
0.05,0.4
0.055,0.41
0.055,0.4
0.07,0.4
0.07,0.395
0.06,0.41
0.055,0.405
0.05,0.395
0.05,0.38
0.04,0.375
0.04,0.375
0.05,0.385
0.05,0.395
0.045,0.405
0.065,0.385
0.08,0.385
0.07,0.39
0.08,0.41
0.065,0.415
0.05,0.405
0.04,0.375
0.045,0.38
0.05,0.375
0.065,0.4
0.06,0.425
0.065,0.42
0.06,0.425
0.075,0.41
0.075,0.405
0.08,0.43
0.075,0.425
0.065,0.405
0.065,0.385
0.055,0.38
0.04,0.395
0.03,0.405
0.025,0.415
0.035,0.405
0.06,0.395
0.085,0.395
0.095,0.41
0.105,0.43
0.1,0.44
0.105,0.43
0.1,0.44
0.11,0.425
0.115,0.435
0.12,0.45
0.12,0.465
0.15,0.455
0.16,0.445
0.19,0.455
0.225,0.435
0.245,0.445
0.24,0.435
0.23,0.395
0.21,0.375
0.195,0.37
0.19,0.38
0.18,0.39
0.18,0.395
0.175,0.4
0.17,0.38
0.15,0.38
0.15,0.375
0.13,0.395
0.1,0.365
0.08,0.35
0.05,0.34
0.055,0.355
0.03,0.37
0.015,0.375
-0.005,0.385
-0.005,0.375
-0.005,0.36
0.0,0.365
-0.005,0.375
-0.01,0.37
-0.02,0.365
-0.025,0.35
-0.03,0.34
-0.025,0.34
-0.025,0.365
-0.02,0.38
-0.03,0.38
-0.04,0.37
-0.025,0.355
-0.02,0.36
-0.03,0.355
-0.025,0.365
-0.025,0.345
-0.03,0.31
0.005,0.32
0.07,0.33
0.17,0.345
0.33,0.355
0.515,0.345
0.76,0.325
1.025,0.33
1.275,0.37
1.49,0.475
1.635,0.6
1.655,0.725
1.55,0.835
1.35,0.92
1.06,0.965
0.755,0.96
0.46,0.89
0.25,0.74
0.085,0.555
-0.005,0.395
-0.04,0.28
-0.05,0.23
-0.035,0.26
-0.005,0.29
0.01,0.325
0.005,0.345
-0.015,0.35
-0.03,0.365
-0.06,0.385
-0.075,0.37
-0.09,0.38
-0.1,0.355
-0.09,0.35
-0.085,0.365
-0.075,0.365
-0.075,0.37
-0.075,0.345
-0.09,0.33
-0.09,0.32
-0.105,0.32
-0.095,0.34
-0.08,0.35
-0.065,0.355
-0.075,0.35
-0.055,0.355
-0.065,0.355
-0.08,0.36
-0.07,0.365
-0.09,0.345
-0.08,0.315
-0.085,0.32
-0.085,0.325
-0.085,0.345
-0.075,0.36
-0.065,0.35
-0.06,0.34
-0.045,0.335
-0.04,0.33
-0.035,0.335
-0.03,0.33
-0.045,0.315
-0.06,0.29
-0.065,0.3
-0.06,0.305
-0.065,0.31
-0.05,0.305
-0.045,0.3
-0.04,0.295
-0.015,0.3
-0.015,0.305
-0.03,0.315
-0.035,0.31
-0.03,0.285
-0.035,0.265
-0.04,0.27
-0.035,0.28
-0.04,0.28
-0.03,0.27
-0.025,0.255
-0.005,0.255
0.01,0.27
0.02,0.255
0.02,0.27
0.02,0.255
0.015,0.225
0.02,0.21
0.0,0.215
0.005,0.235
0.0,0.25
0.01,0.24
0.02,0.22
0.045,0.21
0.05,0.22
0.06,0.24
0.06,0.255
0.05,0.24
0.035,0.23
0.03,0.215
0.025,0.215
0.02,0.225
0.025,0.235
0.02,0.23
0.035,0.225
0.045,0.245
0.075,0.26
0.085,0.27
0.095,0.27
0.1,0.27
0.115,0.255
0.115,0.26
0.115,0.29
0.115,0.32
0.105,0.34
0.095,0.36
0.1,0.345
0.11,0.35
0.115,0.375
0.115,0.385
0.11,0.395
0.105,0.395
0.095,0.375
0.09,0.355
0.08,0.37
0.08,0.375
0.08,0.385
0.075,0.4
0.07,0.395
0.085,0.39
0.09,0.39
0.1,0.38
0.09,0.39
0.08,0.39
0.075,0.385
0.075,0.365
0.075,0.34
0.085,0.36
0.08,0.38
0.075,0.4
0.075,0.4
0.075,0.395
0.08,0.38
0.075,0.39
0.085,0.39
0.095,0.4
0.075,0.395
0.07,0.38
0.055,0.36
0.055,0.365
0.075,0.37
0.075,0.38
0.085,0.395
0.095,0.39
0.1,0.375
0.105,0.38
0.105,0.38
0.105,0.38
0.085,0.395
0.08,0.375
0.075,0.355
0.075,0.35
0.085,0.37
0.07,0.395
0.07,0.405
0.08,0.41
0.08,0.39
0.085,0.38
0.095,0.385
0.1,0.39
0.09,0.385
0.085,0.385
0.075,0.365
0.07,0.36
0.085,0.37
0.08,0.385
0.07,0.4
0.075,0.43
0.075,0.42
0.07,0.4
0.085,0.4
0.095,0.415
0.095,0.405
0.085,0.4
0.06,0.385
0.055,0.38
0.06,0.38
0.08,0.405
0.095,0.42
0.095,0.42
0.12,0.425
0.115,0.43
0.13,0.425
0.135,0.435
0.13,0.435
0.135,0.435
0.15,0.435
0.145,0.43
0.155,0.425
0.165,0.435
0.19,0.455
0.215,0.45
0.245,0.45
0.27,0.43
0.28,0.41
0.26,0.39
0.25,0.395
0.215,0.405
0.215,0.405
0.195,0.395
0.21,0.39
0.215,0.39
0.21,0.385
0.21,0.39
0.19,0.38
0.175,0.365
0.145,0.36
0.125,0.36
0.085,0.38
0.06,0.385
0.03,0.385
0.02,0.36
0.03,0.355
0.035,0.35
0.04,0.38
0.03,0.395
0.03,0.405
0.025,0.395
0.02,0.39
0.015,0.38
0.015,0.365
-0.005,0.36
-0.005,0.36
0.0,0.34
0.0,0.335
0.01,0.32
0.01,0.355
0.01,0.38
0.005,0.4
0.0,0.375
-0.005,0.345
-0.005,0.315
0.005,0.325
0.04,0.32
0.085,0.335
0.155,0.34
0.28,0.33
0.43,0.32
0.63,0.31
0.865,0.31
1.105,0.355
1.335,0.415
1.54,0.49
1.675,0.59
1.705,0.685
1.625,0.81
1.43,0.91
1.16,0.975
0.85,0.985
0.57,0.915
0.335,0.78
0.15,0.625
0.04,0.47
-0.015,0.345
-0.04,0.27
-0.04,0.235
-0.03,0.24
0.0,0.28
0.01,0.32
-0.005,0.365
-0.005,0.385
-0.03,0.37
-0.04,0.355
-0.045,0.33
-0.055,0.335
-0.065,0.35
-0.075,0.365
-0.085,0.36
-0.085,0.345
-0.1,0.335
-0.1,0.33
-0.1,0.33
-0.095,0.355
-0.095,0.365
-0.085,0.355
-0.08,0.34
-0.075,0.335
-0.065,0.33
-0.065,0.345
-0.075,0.35
-0.08,0.34
-0.085,0.335
-0.095,0.315
-0.11,0.305
-0.105,0.31
-0.075,0.325
-0.075,0.345
-0.065,0.335
-0.055,0.335
-0.05,0.3
-0.06,0.325
-0.065,0.33
-0.08,0.33
-0.085,0.315
-0.08,0.295
-0.075,0.28
-0.09,0.285
-0.08,0.305
-0.08,0.33
-0.06,0.32
-0.06,0.32
-0.05,0.3
-0.035,0.295
-0.04,0.295
-0.035,0.3
-0.035,0.3
-0.05,0.3
-0.06,0.275
-0.04,0.26
-0.045,0.27
-0.025,0.285
-0.03,0.3
-0.015,0.305
-0.015,0.275
-0.02,0.265
-0.005,0.245
-0.005,0.245
-0.005,0.245
0.0,0.245
-0.005,0.235
0.005,0.215
0.0,0.21
0.0,0.22
0.005,0.255
0.01,0.255
0.005,0.245
0.01,0.235
0.005,0.205
0.015,0.2
0.025,0.21
0.015,0.225
0.015,0.225
0.01,0.23
0.02,0.215
0.03,0.21
0.035,0.24
0.04,0.24
0.045,0.24
0.025,0.24
0.035,0.215
0.03,0.205
0.03,0.22
0.04,0.23
0.05,0.24
0.07,0.25
0.075,0.255
0.095,0.265
0.1,0.295
0.1,0.33
0.105,0.335
0.09,0.33
0.115,0.33
0.105,0.315
0.11,0.34
0.095,0.355
0.095,0.355
0.08,0.36
0.095,0.35
0.095,0.375
0.095,0.41
0.105,0.415
0.1,0.415
0.085,0.395
0.09,0.395
0.085,0.38
0.06,0.4
0.06,0.39
0.06,0.395
0.06,0.39
0.065,0.38
0.08,0.395
0.08,0.415
0.07,0.43
0.065,0.415
0.08,0.4
0.085,0.375
0.075,0.365
0.075,0.36
0.055,0.365
0.045,0.37
0.05,0.365
0.035,0.365
0.06,0.385
0.07,0.405
0.09,0.415
0.085,0.41
0.095,0.395
0.095,0.385
0.105,0.375
0.085,0.395
0.065,0.395
0.05,0.395
0.05,0.385
0.06,0.38
0.075,0.4
0.08,0.415
0.09,0.415
0.09,0.395
0.095,0.395
0.095,0.37
0.09,0.375
0.095,0.39
0.085,0.395
0.06,0.385
0.05,0.38
0.045,0.395
0.07,0.4
0.07,0.405
0.075,0.4
0.095,0.39
0.085,0.38
0.095,0.38
0.095,0.375
0.09,0.385
0.07,0.375
0.065,0.37
0.06,0.37
0.055,0.385
0.06,0.405
0.06,0.425
0.085,0.43
0.1,0.405
0.12,0.395
0.135,0.4
0.13,0.41
0.12,0.415
0.11,0.42
0.095,0.43
0.12,0.43
0.125,0.44
0.145,0.465
0.165,0.47
0.18,0.47
0.215,0.455
0.23,0.43
0.255,0.425
0.25,0.415
0.25,0.415
0.245,0.405
0.23,0.38
0.245,0.36
0.235,0.395
0.245,0.405
0.24,0.415
0.23,0.4
0.215,0.38
0.19,0.37
0.16,0.39
0.13,0.39
0.105,0.395
0.09,0.385
0.07,0.375
0.06,0.365
0.04,0.385
0.025,0.405
0.015,0.41
0.015,0.395
0.01,0.38
0.0,0.36
0.02,0.36
0.01,0.36
0.0,0.345
-0.015,0.33
-0.015,0.335
-0.005,0.345
0.005,0.37
0.01,0.38
0.02,0.395
0.03,0.375
0.01,0.375
-0.005,0.355
-0.025,0.355
-0.025,0.34
-0.02,0.335
0.02,0.32
0.1,0.31
0.21,0.315
0.37,0.33
0.58,0.33
0.805,0.33
1.065,0.335
1.335,0.365
1.56,0.455
1.715,0.55
1.78,0.67
1.71,0.785
1.51,0.87
1.225,0.9
0.89,0.875
0.575,0.8
0.325,0.68
0.115,0.535
0.015,0.39
-0.025,0.28
-0.02,0.23
0.01,0.24
0.035,0.29
0.03,0.325
0.0,0.35
-0.03,0.35
-0.06,0.355
-0.09,0.355
-0.095,0.355
-0.085,0.355
-0.07,0.35
-0.055,0.35
-0.06,0.355
-0.045,0.35
-0.06,0.355
-0.075,0.345
-0.105,0.33
-0.11,0.32
-0.105,0.335
-0.11,0.35
-0.095,0.365
-0.09,0.365
-0.065,0.36
-0.065,0.34
-0.055,0.34
-0.06,0.335
-0.08,0.335
-0.09,0.325
-0.09,0.3
-0.09,0.295
-0.09,0.31
-0.095,0.325
-0.1,0.335
-0.095,0.34
-0.08,0.35
-0.065,0.33
-0.05,0.31
-0.04,0.305
-0.05,0.295
-0.05,0.295
-0.05,0.27
-0.07,0.285
-0.095,0.3
-0.085,0.32
-0.085,0.33
-0.08,0.325
-0.08,0.315
-0.06,0.29
-0.05,0.295
-0.045,0.29
-0.035,0.28
-0.03,0.275
-0.04,0.265
-0.045,0.245
-0.04,0.25
-0.03,0.265
-0.03,0.28
-0.045,0.265
-0.03,0.265
-0.005,0.25
-0.005,0.245
0.005,0.24
0.0,0.245
0.0,0.235
0.015,0.225
0.0,0.21
0.005,0.215
0.0,0.23
0.01,0.245
0.015,0.25
0.005,0.23
0.02,0.22
0.01,0.225
0.015,0.225
0.005,0.23
-0.015,0.23
-0.025,0.22
-0.02,0.21
-0.01,0.215
-0.01,0.22
0.005,0.24
0.015,0.26
0.02,0.265
0.02,0.25
0.02,0.255
0.02,0.255
0.035,0.265
0.045,0.275
0.05,0.28
0.07,0.275
0.075,0.295
0.08,0.315
0.08,0.345
0.085,0.375
0.085,0.38
0.09,0.385
0.09,0.38
0.08,0.385
0.08,0.385
0.065,0.385
0.05,0.38
0.04,0.375
0.06,0.36
0.07,0.365
0.075,0.385
0.09,0.395
0.08,0.405
0.075,0.4
0.06,0.4
0.055,0.395
0.045,0.385
0.04,0.385
0.025,0.375
0.035,0.385
0.04,0.37
0.035,0.36
0.045,0.365
0.05,0.39
0.05,0.415
0.03,0.4
0.035,0.4
0.04,0.385
0.04,0.38
0.045,0.385
0.04,0.375
0.025,0.38
0.04,0.375
0.035,0.38
0.05,0.375
0.055,0.395
0.06,0.41
0.055,0.4
0.065,0.4
0.065,0.37
0.065,0.36
0.065,0.35
0.06,0.365
0.05,0.38
0.045,0.365
0.055,0.365
0.075,0.365
0.075,0.375
0.07,0.395
0.05,0.405
0.05,0.4
0.05,0.395
0.05,0.38
0.055,0.38
0.055,0.375
0.05,0.38
0.045,0.375
0.04,0.365
0.05,0.37
0.055,0.38
0.06,0.39
0.07,0.39
0.06,0.395
0.075,0.36
0.07,0.355
0.07,0.35
0.065,0.365
0.06,0.365
0.06,0.36
0.07,0.37
0.075,0.375
0.075,0.39
0.08,0.395
0.085,0.42
0.08,0.435
0.105,0.42
0.13,0.415
0.125,0.425
0.13,0.415
0.14,0.43
0.16,0.415
0.18,0.395
0.185,0.405
0.225,0.425
0.235,0.435
0.24,0.44
0.23,0.425
0.23,0.39
0.21,0.375
0.2,0.38
0.185,0.38
0.185,0.38
0.195,0.365
0.19,0.355
0.2,0.365
0.2,0.375
0.185,0.385
0.175,0.375
0.135,0.355
0.1,0.345
0.06,0.36
0.025,0.36
0.005,0.36
0.01,0.36
0.005,0.36
0.005,0.36
0.01,0.335
0.005,0.355
0.0,0.365
0.005,0.345
-0.005,0.355
-0.015,0.335
-0.02,0.35
-0.02,0.355
-0.04,0.35
-0.05,0.34
-0.045,0.345
-0.035,0.345
-0.025,0.36
-0.03,0.36
-0.03,0.36
-0.04,0.335
-0.04,0.32
0.0,0.3
0.055,0.315
0.16,0.315
0.295,0.325
0.485,0.3
0.73,0.285
0.99,0.3
1.265,0.35
1.535,0.435
1.745,0.52
1.845,0.625
1.79,0.715
1.58,0.78
1.275,0.81
0.905,0.79
0.555,0.71
0.26,0.575
0.065,0.42
-0.025,0.31
-0.055,0.255
-0.045,0.24
-0.005,0.245
0.03,0.265
0.015,0.3
0.015,0.325
-0.025,0.345
-0.065,0.345
-0.095,0.33
-0.12,0.32
-0.11,0.3
-0.105,0.3
-0.1,0.325
-0.085,0.355
-0.085,0.35
-0.07,0.335
-0.07,0.315
-0.08,0.31
-0.095,0.305
-0.105,0.305
-0.105,0.295
-0.115,0.295
-0.125,0.28
-0.13,0.3
-0.13,0.315
-0.115,0.325
-0.11,0.315
-0.095,0.31
-0.095,0.305
-0.08,0.295
-0.095,0.29
-0.09,0.28
-0.095,0.28
-0.115,0.265
-0.1,0.27
-0.11,0.28
-0.105,0.3
-0.105,0.31
-0.1,0.285
-0.08,0.275
-0.075,0.27
-0.07,0.265
-0.08,0.26
-0.08,0.23
-0.085,0.225
-0.09,0.22
-0.08,0.235
-0.09,0.25
-0.07,0.27
-0.06,0.265
-0.055,0.265
-0.04,0.24
-0.035,0.25
-0.045,0.245
-0.055,0.23
-0.065,0.21
-0.05,0.19
-0.06,0.18
-0.055,0.19
-0.05,0.21
-0.03,0.21
-0.025,0.2
-0.005,0.19
0.005,0.205
0.0,0.19
0.005,0.19
0.02,0.175
0.015,0.16
0.005,0.165
-0.02,0.175
-0.04,0.185
-0.045,0.195
-0.06,0.185
-0.035,0.19
-0.025,0.21
-0.01,0.205
0.0,0.2
0.015,0.185
0.005,0.165
0.005,0.17
0.005,0.185
0.01,0.22
0.015,0.23
0.035,0.245
0.05,0.26
0.065,0.27
0.075,0.285
0.09,0.285
0.095,0.305
0.095,0.285
0.085,0.29
0.085,0.3
0.07,0.315
0.06,0.32
0.045,0.32
0.035,0.335
0.05,0.34
0.04,0.34
0.05,0.345
0.05,0.35
0.055,0.34
0.05,0.33
0.04,0.32
0.035,0.315
0.02,0.31
0.01,0.325
0.015,0.315
0.025,0.325
0.035,0.32
0.035,0.34
0.04,0.36
0.035,0.36
0.03,0.355
0.04,0.335
0.03,0.32
0.02,0.31
0.02,0.325
0.01,0.325
0.015,0.32
0.005,0.315
0.03,0.305
0.045,0.32
0.05,0.335
0.07,0.33
0.08,0.32
0.085,0.31
0.085,0.285
0.06,0.295
0.05,0.295
0.045,0.305
0.02,0.315
0.015,0.31
0.03,0.32
0.04,0.33
0.065,0.33
0.06,0.335
0.07,0.325
0.075,0.305
0.075,0.28
0.065,0.295
0.04,0.29
0.035,0.305
0.04,0.31
0.03,0.31
0.045,0.31
0.045,0.305
0.045,0.315
0.065,0.32
0.065,0.335
0.065,0.325
0.06,0.305
0.055,0.305
0.045,0.295
0.045,0.31
0.035,0.305
0.05,0.29
0.04,0.295
0.04,0.3
0.06,0.32
0.065,0.335
0.065,0.335
0.075,0.33
0.08,0.325
0.08,0.305
0.075,0.325
0.09,0.345
0.095,0.355
0.1,0.36
0.11,0.35
0.13,0.36
0.14,0.365
0.16,0.385
0.17,0.37
0.185,0.37
0.19,0.335
0.215,0.32
0.22,0.32
0.215,0.305
0.205,0.325
0.215,0.315
0.215,0.32
0.215,0.3
0.22,0.315
0.215,0.325
0.2,0.32
0.195,0.325
0.175,0.305
0.165,0.285
0.15,0.275
0.12,0.285
0.11,0.3
0.075,0.3
0.065,0.3
0.05,0.3
0.045,0.305
0.025,0.305
-0.015,0.31
-0.015,0.29
-0.03,0.27
-0.03,0.265
-0.03,0.265
-0.015,0.26
-0.015,0.28
-0.02,0.28
-0.01,0.28
-0.015,0.28
-0.035,0.29
-0.025,0.3
-0.03,0.295
-0.04,0.28
-0.06,0.26
-0.065,0.235
-0.07,0.235
-0.07,0.235
-0.02,0.235
0.04,0.235
0.135,0.25
0.285,0.25
0.48,0.25
0.7,0.245
0.95,0.265
1.23,0.295
1.47,0.365
1.63,0.48
1.68,0.61
1.57,0.725
1.335,0.8
1.03,0.815
0.705,0.77
0.395,0.65
0.15,0.515
0.005,0.36
-0.085,0.255
-0.11,0.175
-0.085,0.155
-0.07,0.195
-0.035,0.24
-0.03,0.27
-0.04,0.275
-0.05,0.275
-0.08,0.265
-0.085,0.255
-0.095,0.255
-0.1,0.245
-0.105,0.255
-0.105,0.235
-0.105,0.22
-0.115,0.235
-0.12,0.24
-0.13,0.235
-0.14,0.24
-0.145,0.22
-0.145,0.24
-0.14,0.245
-0.125,0.275
-0.115,0.255
-0.105,0.245
-0.105,0.22
-0.105,0.205
-0.11,0.22
-0.12,0.235
-0.13,0.245
-0.145,0.23
-0.145,0.23
-0.145,0.23
-0.13,0.245
-0.12,0.245
-0.115,0.235
-0.105,0.215
-0.09,0.205
-0.085,0.195
-0.095,0.205
-0.11,0.205
-0.12,0.195
-0.115,0.18
-0.11,0.175
-0.1,0.175
-0.1,0.205
-0.095,0.215
-0.09,0.22
-0.085,0.215
-0.085,0.2
-0.085,0.18
-0.075,0.17
-0.085,0.17
-0.08,0.17
-0.08,0.145
-0.065,0.15
-0.08,0.15
-0.065,0.175
-0.06,0.175
-0.055,0.16
-0.055,0.145
-0.045,0.135
-0.05,0.13
-0.055,0.125
-0.06,0.125
-0.055,0.12
-0.045,0.1
-0.04,0.1
-0.02,0.135
-0.02,0.14
-0.015,0.14
-0.015,0.135
-0.025,0.115
-0.025,0.115
-0.025,0.115
-0.03,0.13
-0.035,0.125
-0.035,0.12
-0.035,0.11
-0.03,0.12
-0.035,0.14
-0.025,0.155
-0.01,0.15
0.0,0.145
0.015,0.14
0.025,0.15
0.025,0.175
0.03,0.185
0.03,0.175
0.03,0.2
0.03,0.195
0.035,0.21
0.045,0.23
0.055,0.255
0.07,0.28
0.075,0.265
0.07,0.265
0.065,0.27
0.05,0.26
0.045,0.275
0.04,0.28
0.03,0.27
0.025,0.265
0.025,0.27
0.035,0.285
0.04,0.305
0.025,0.31
0.035,0.285
0.02,0.275
0.015,0.27
0.005,0.27
-0.01,0.29
-0.02,0.27
-0.02,0.265
-0.015,0.255
0.005,0.25
0.015,0.27
0.03,0.285
0.03,0.29
0.025,0.275
0.03,0.275
0.025,0.275
0.02,0.285
0.005,0.275
0.015,0.275
0.0,0.265
-0.005,0.26
0.005,0.255
0.005,0.28
0.03,0.285
0.025,0.295
0.03,0.29
0.03,0.275
0.025,0.255
0.03,0.26
0.03,0.255
0.035,0.25
0.02,0.25
0.015,0.245
0.01,0.26
0.005,0.265
0.025,0.29
0.035,0.295
0.04,0.285
0.05,0.28
0.055,0.24
0.06,0.235
0.05,0.24
0.04,0.245
0.035,0.255
0.02,0.25
0.02,0.245
0.01,0.255
0.01,0.265
0.025,0.295
0.025,0.29
0.045,0.285
0.035,0.27
0.035,0.25
0.025,0.25
0.02,0.255
0.015,0.245
0.02,0.25
0.01,0.25
0.005,0.255
0.01,0.265
0.015,0.29
0.04,0.29
0.05,0.295
0.065,0.28
0.065,0.275
0.085,0.295
0.085,0.3
0.08,0.315
0.08,0.32
0.095,0.31
0.1,0.31
0.12,0.305
0.13,0.31
0.135,0.325
0.165,0.32
0.185,0.305
0.195,0.285
0.205,0.255
0.195,0.24
0.18,0.25
0.18,0.255
0.18,0.26
0.185,0.26
0.18,0.26
0.175,0.27
0.165,0.28
0.15,0.28
0.115,0.27
0.095,0.26
0.065,0.23
0.035,0.22
0.015,0.23
0.01,0.245
0.01,0.25
0.01,0.245
0.005,0.24
-0.005,0.255
-0.01,0.225
-0.03,0.24
-0.03,0.24
-0.045,0.235
-0.055,0.215
-0.06,0.215
-0.08,0.22
-0.075,0.21
-0.08,0.24
-0.075,0.245
-0.065,0.24
-0.055,0.235
-0.035,0.235
-0.035,0.23
-0.05,0.25
-0.07,0.23
-0.085,0.22
-0.105,0.175
-0.11,0.165
-0.105,0.165
-0.08,0.19
-0.02,0.21
0.065,0.215
0.18,0.2
0.325,0.18
0.515,0.16
0.74,0.155
0.99,0.185
1.225,0.27
1.425,0.365
1.55,0.48
1.565,0.605
1.48,0.745
1.295,0.83
1.05,0.88
0.775,0.85
0.51,0.755
0.265,0.6
0.095,0.425
-0.025,0.28
-0.09,0.17
-0.105,0.135
-0.09,0.115
-0.075,0.135
-0.045,0.19
-0.04,0.215
-0.05,0.245
-0.07,0.265
-0.1,0.265
-0.12,0.225
-0.135,0.205
-0.15,0.21
-0.16,0.21
-0.165,0.225
-0.17,0.215
-0.165,0.215
-0.16,0.215
-0.145,0.215
-0.14,0.25
-0.14,0.25
-0.15,0.245
-0.16,0.225
-0.155,0.22
-0.16,0.225
-0.16,0.21
-0.165,0.215
-0.175,0.2
-0.175,0.2
-0.16,0.195
-0.145,0.205
-0.145,0.235
-0.15,0.24
-0.145,0.225
-0.14,0.205
-0.115,0.2
-0.12,0.2
-0.13,0.195
-0.14,0.2
-0.155,0.185
-0.15,0.175
-0.16,0.185
-0.135,0.185
-0.13,0.215
-0.115,0.205
-0.1,0.195
-0.12,0.175
-0.115,0.175
-0.135,0.17
-0.135,0.165
-0.145,0.165
-0.145,0.15
-0.125,0.14
-0.115,0.145
-0.11,0.165
-0.11,0.165
-0.09,0.17
-0.095,0.155
-0.085,0.15
-0.085,0.14
-0.09,0.14
-0.095,0.115
-0.1,0.115
-0.125,0.09
-0.115,0.075
-0.11,0.1
-0.1,0.105
-0.09,0.11
-0.07,0.12
-0.06,0.115
-0.07,0.105
-0.06,0.12
-0.08,0.11
-0.1,0.09
-0.11,0.075
-0.12,0.075
-0.105,0.095
-0.085,0.11
-0.075,0.13
-0.065,0.115
-0.06,0.12
-0.055,0.105
-0.065,0.115
-0.07,0.12
-0.075,0.12
-0.075,0.12
-0.06,0.12
-0.04,0.13
-0.025,0.16
-0.01,0.185
0.005,0.21
0.02,0.205
0.025,0.225
0.035,0.245
0.03,0.26
0.03,0.265
0.015,0.265
-0.005,0.235
-0.01,0.25
-0.02,0.25
-0.025,0.255
-0.035,0.265
-0.03,0.255
-0.02,0.255
-0.015,0.265
-0.01,0.28
-0.01,0.29
-0.015,0.275
-0.025,0.255
-0.025,0.255
-0.04,0.25
-0.04,0.27
-0.05,0.27
-0.055,0.275
-0.04,0.255
-0.02,0.255
-0.005,0.27
-0.01,0.285
-0.01,0.28
-0.02,0.275
-0.03,0.25
-0.045,0.24
-0.035,0.255
-0.045,0.25
-0.055,0.265
-0.055,0.26
-0.045,0.255
-0.035,0.255
-0.025,0.265
-0.02,0.28
-0.01,0.28
-0.01,0.265
-0.03,0.255
-0.03,0.245
-0.03,0.25
-0.03,0.265
-0.045,0.27
-0.045,0.27
-0.045,0.255
-0.045,0.24
-0.035,0.25
-0.035,0.265
-0.03,0.28
-0.02,0.275
-0.02,0.265
-0.03,0.245
-0.035,0.25
-0.045,0.245
-0.055,0.25
-0.035,0.265
-0.03,0.26
-0.045,0.26
-0.05,0.27
-0.06,0.27
-0.055,0.27
-0.045,0.26
-0.06,0.25
-0.04,0.245
-0.055,0.245
-0.05,0.26
-0.04,0.265
-0.035,0.27
-0.03,0.265
-0.03,0.255
-0.02,0.27
-0.01,0.29
-0.005,0.295
0.01,0.29
0.015,0.275
0.015,0.28
0.04,0.285
0.035,0.3
0.04,0.295
0.055,0.295
0.07,0.295
0.09,0.3
0.115,0.325
0.13,0.325
0.13,0.295
0.14,0.27
0.125,0.25
0.12,0.235
0.11,0.245
0.09,0.26
0.095,0.255
0.075,0.25
0.07,0.23
0.07,0.235
0.06,0.24
0.05,0.245
0.015,0.25
-0.01,0.24
-0.045,0.235
-0.07,0.24
-0.09,0.255
-0.11,0.265
-0.12,0.27
-0.115,0.24
-0.11,0.23
-0.1,0.235
-0.105,0.235
-0.095,0.24
-0.11,0.25
-0.135,0.24
-0.145,0.225
-0.16,0.215
-0.16,0.21
-0.155,0.23
-0.15,0.225
-0.145,0.22
-0.125,0.22
-0.105,0.22
-0.105,0.22
-0.12,0.23
-0.145,0.21
-0.15,0.19
-0.15,0.18
-0.115,0.17
-0.055,0.19
0.045,0.2
0.185,0.195
0.35,0.185
0.575,0.165
0.845,0.17
1.11,0.24
1.35,0.36
1.51,0.48
1.565,0.61
1.5,0.715
1.325,0.79
1.085,0.84
0.79,0.825
0.49,0.765
0.215,0.625
0.01,0.46
-0.11,0.3
-0.165,0.18
-0.16,0.125
-0.125,0.11
-0.105,0.16
-0.095,0.18
-0.1,0.205
-0.12,0.21
-0.145,0.22
-0.17,0.225
-0.185,0.23
-0.21,0.22
-0.21,0.215
-0.215,0.2
-0.205,0.205
-0.205,0.2
-0.195,0.2
-0.205,0.21
-0.21,0.195
-0.22,0.18
-0.23,0.18
-0.23,0.185
-0.225,0.19
-0.225,0.21
-0.215,0.205
-0.21,0.21
-0.185,0.2
-0.195,0.2
-0.195,0.2
-0.185,0.21
-0.19,0.2
-0.21,0.19
-0.225,0.17
-0.215,0.175
-0.22,0.175
-0.21,0.195
-0.205,0.2
-0.195,0.19
-0.19,0.18
-0.195,0.165
-0.175,0.18
-0.18,0.15
-0.185,0.17
-0.195,0.165
-0.195,0.145
-0.195,0.145
-0.185,0.16
-0.165,0.175
-0.155,0.175
-0.145,0.18
-0.15,0.155
-0.165,0.14
-0.165,0.13
-0.175,0.135
-0.16,0.13
-0.17,0.14
-0.17,0.125
-0.17,0.11
-0.165,0.11
-0.16,0.115
-0.15,0.12
-0.135,0.12
-0.125,0.115
-0.145,0.095
-0.135,0.085
-0.145,0.09
-0.14,0.08
-0.15,0.09
-0.14,0.075
-0.135,0.065
-0.14,0.07
-0.13,0.09
-0.12,0.09
-0.105,0.09
-0.095,0.08
-0.1,0.07
-0.095,0.065
-0.095,0.05
-0.1,0.06
-0.11,0.065
-0.11,0.06
-0.12,0.06
-0.115,0.075
-0.11,0.075
-0.105,0.095
-0.095,0.1
-0.08,0.08
-0.065,0.08
-0.05,0.08
-0.045,0.095
-0.045,0.09
-0.035,0.085
-0.035,0.09
-0.035,0.1
-0.035,0.125
-0.02,0.155
-0.01,0.175
0.005,0.195
0.015,0.2
0.01,0.21
0.015,0.215
0.015,0.22
-0.01,0.22
-0.025,0.21
-0.04,0.205
-0.035,0.195
-0.05,0.2
-0.035,0.22
-0.05,0.245
-0.045,0.26
-0.045,0.25
-0.055,0.23
-0.045,0.225
-0.055,0.22
-0.05,0.225
-0.055,0.22
-0.055,0.215
-0.055,0.205
-0.055,0.21
-0.04,0.225
-0.04,0.24
-0.035,0.245
-0.04,0.24
-0.04,0.23
-0.05,0.215
-0.05,0.22
-0.055,0.225
-0.06,0.205
-0.055,0.21
-0.04,0.205
-0.04,0.22
-0.035,0.23
-0.03,0.245
-0.03,0.235
-0.03,0.235
-0.03,0.215
-0.03,0.225
-0.03,0.225
-0.035,0.22
-0.055,0.225
-0.06,0.215
-0.07,0.215
-0.07,0.205
-0.065,0.22
-0.05,0.235
-0.035,0.235
-0.03,0.22
-0.025,0.205
-0.035,0.21
-0.04,0.225
-0.04,0.225
-0.045,0.225
-0.045,0.205
-0.045,0.19
-0.045,0.195
-0.035,0.215
-0.03,0.225
-0.015,0.235
-0.015,0.24
-0.04,0.23
-0.045,0.225
-0.05,0.23
-0.05,0.23
-0.055,0.225
-0.06,0.205
-0.05,0.2
-0.05,0.225
-0.035,0.225
-0.025,0.24
-0.02,0.25
-0.005,0.245
-0.005,0.24
0.0,0.235
0.02,0.255
0.015,0.27
0.005,0.265
-0.005,0.27
0.0,0.26
0.02,0.265
0.02,0.265
0.045,0.28
0.075,0.295
0.11,0.28
0.12,0.255
0.15,0.25
0.15,0.235
0.145,0.22
0.135,0.225
0.125,0.205
0.105,0.195
0.1,0.2
0.105,0.215
0.085,0.25
0.075,0.235
0.07,0.22
0.055,0.205
0.03,0.185
-0.005,0.19
-0.02,0.2
-0.035,0.2
-0.055,0.205
-0.06,0.195
-0.075,0.19
-0.095,0.195
-0.1,0.21
-0.125,0.21
-0.12,0.21
-0.12,0.2
-0.1,0.195
-0.1,0.19
-0.095,0.19
-0.105,0.2
-0.12,0.2
-0.125,0.195
-0.125,0.19
-0.115,0.195
-0.11,0.205
-0.11,0.225
-0.11,0.22
-0.12,0.2
-0.135,0.185
-0.155,0.16
-0.165,0.16
-0.17,0.145
-0.125,0.15
-0.07,0.16
0.035,0.15
0.18,0.155
0.38,0.155
0.615,0.17
0.885,0.195
1.145,0.255
1.375,0.365
1.525,0.51
1.55,0.645
1.43,0.785
1.205,0.845
0.905,0.835
0.575,0.78
0.285,0.645
0.065,0.495
-0.08,0.34
-0.16,0.195
-0.19,0.11
-0.175,0.065
-0.15,0.085
-0.12,0.115
-0.12,0.165
-0.135,0.2
-0.145,0.215
-0.145,0.2
-0.155,0.195
-0.16,0.185
-0.165,0.195
-0.185,0.19
-0.175,0.2
-0.185,0.18
-0.18,0.165
-0.19,0.16
-0.19,0.16
-0.21,0.175
-0.22,0.17
-0.22,0.16
-0.215,0.16
-0.2,0.16
-0.195,0.18
-0.175,0.185
-0.18,0.17
-0.18,0.16
-0.16,0.145
-0.165,0.14
-0.17,0.145
-0.195,0.165
-0.2,0.17
-0.195,0.165
-0.185,0.165
-0.17,0.155
-0.165,0.15
-0.145,0.17
-0.15,0.17
-0.155,0.165
-0.165,0.15
-0.155,0.125
-0.16,0.12
-0.155,0.115
-0.15,0.125
-0.155,0.135
-0.165,0.14
-0.155,0.14
-0.155,0.145
-0.145,0.145
-0.135,0.165
-0.13,0.16
-0.125,0.135
-0.13,0.12
-0.125,0.085
-0.12,0.085
-0.11,0.09
-0.115,0.11
-0.12,0.12
-0.135,0.11
-0.125,0.105
-0.12,0.1
-0.115,0.095
-0.11,0.11
-0.1,0.085
-0.1,0.06
-0.095,0.035
-0.105,0.03
-0.115,0.04
-0.115,0.045
-0.11,0.07
-0.1,0.065
-0.08,0.055
-0.07,0.055
-0.075,0.045
-0.07,0.055
-0.065,0.05
-0.075,0.035
-0.08,0.035
-0.09,0.025
-0.07,0.03
-0.075,0.045
-0.07,0.065
-0.07,0.065
-0.07,0.075
-0.045,0.055
-0.03,0.04
-0.035,0.035
-0.05,0.045
-0.06,0.045
-0.065,0.04
-0.06,0.035
-0.045,0.025
-0.035,0.04
-0.01,0.065
0.01,0.09
0.025,0.115
0.02,0.115
0.035,0.11
0.04,0.13
0.05,0.135
0.045,0.15
0.025,0.165
0.015,0.165
0.005,0.17
0.0,0.165
0.005,0.195
0.01,0.21
0.01,0.235
0.015,0.245
0.02,0.215
0.005,0.195
0.01,0.185
0.0,0.185
-0.01,0.19
-0.025,0.2
-0.035,0.195
-0.04,0.195
-0.035,0.185
-0.04,0.195
-0.03,0.215
-0.025,0.225
-0.035,0.215
-0.03,0.21
-0.015,0.195
-0.015,0.205
-0.01,0.21
-0.015,0.21
-0.015,0.21
-0.02,0.195
-0.025,0.195
-0.02,0.2
-0.025,0.215
-0.015,0.22
-0.02,0.225
-0.01,0.215
-0.005,0.2
-0.015,0.195
-0.01,0.2
-0.015,0.195
-0.01,0.19
-0.015,0.18
-0.01,0.175
-0.01,0.185
0.0,0.2
-0.005,0.215
-0.025,0.225
-0.025,0.21
-0.03,0.2
-0.025,0.19
-0.015,0.18
-0.015,0.19
-0.015,0.2
-0.025,0.18
-0.025,0.19
-0.005,0.195
0.005,0.215
0.005,0.21
-0.005,0.205
-0.005,0.2
-0.01,0.175
-0.005,0.17
-0.025,0.175
-0.015,0.185
-0.01,0.19
-0.015,0.19
-0.01,0.195
-0.005,0.195
-0.01,0.22
-0.005,0.22
-0.02,0.215
-0.01,0.2
-0.015,0.195
-0.01,0.195
-0.015,0.185
-0.005,0.2
0.0,0.205
0.015,0.215
0.03,0.22
0.055,0.23
0.08,0.26
0.095,0.265
0.09,0.255
0.085,0.24
0.1,0.23
0.105,0.23
0.105,0.245
0.11,0.235
0.145,0.235
0.16,0.225
0.165,0.22
0.165,0.225
0.17,0.235
0.16,0.225
0.155,0.215
0.16,0.205
0.145,0.185
0.12,0.18
0.1,0.185
0.065,0.175
0.03,0.165
0.015,0.17
0.015,0.185
-0.005,0.2
0.0,0.22
0.0,0.215
-0.02,0.195
-0.025,0.19
-0.04,0.175
-0.05,0.18
-0.055,0.175
-0.055,0.175
-0.065,0.16
-0.09,0.16
-0.11,0.18
-0.105,0.19
-0.1,0.195
-0.075,0.19
-0.065,0.18
-0.055,0.165
-0.06,0.175
-0.075,0.17
-0.09,0.15
-0.13,0.14
-0.135,0.115
-0.125,0.125
-0.08,0.15
0.0,0.18
0.13,0.19
0.3,0.17
0.535,0.14
0.8,0.135
1.065,0.16
1.31,0.25
1.5,0.36
1.585,0.47
1.56,0.6
1.395,0.725
1.14,0.805
0.8,0.795
0.455,0.71
0.185,0.545
-0.005,0.37
-0.11,0.21
-0.155,0.105
-0.16,0.055
-0.145,0.045
-0.125,0.065
-0.11,0.1
-0.09,0.15
-0.095,0.195
-0.12,0.205
-0.145,0.205
-0.16,0.175
-0.175,0.145
-0.175,0.135
-0.18,0.15
-0.165,0.15
-0.17,0.14
-0.185,0.13
-0.17,0.135
-0.17,0.13
-0.175,0.15
-0.18,0.155
-0.175,0.16
-0.17,0.155
-0.175,0.14
-0.185,0.135
-0.17,0.14
-0.175,0.13
-0.175,0.125
-0.18,0.11
-0.19,0.115
-0.175,0.11
-0.165,0.13
-0.16,0.135
-0.16,0.155
-0.155,0.125
-0.16,0.13
-0.16,0.13
-0.155,0.13
-0.17,0.12
-0.175,0.105
-0.165,0.085
-0.155,0.085
-0.155,0.09
-0.135,0.105
-0.14,0.11
-0.145,0.13
-0.145,0.12
-0.145,0.115
-0.13,0.105
-0.13,0.1
-0.13,0.07
-0.13,0.065
-0.145,0.035
-0.135,0.045
-0.125,0.06
-0.11,0.06
-0.1,0.07
-0.105,0.06
-0.1,0.055
-0.09,0.045
-0.09,0.055
-0.09,0.05
-0.09,0.05
-0.095,0.025
-0.115,0.03
-0.09,0.015
-0.07,0.035
-0.065,0.045
-0.055,0.035
-0.055,0.025
-0.055,0.03
-0.055,0.03
-0.065,0.035
-0.07,0.04
-0.07,0.025
-0.07,0.005
-0.075,-0.025
-0.07,-0.015
-0.08,0.01
-0.07,0.02
-0.08,0.02
-0.08,0.045
-0.055,0.035
-0.05,0.045
-0.04,0.055
-0.04,0.05
-0.05,0.055
-0.05,0.04
-0.035,0.04
-0.03,0.06
-0.015,0.09
0.0,0.115
0.02,0.145
0.025,0.145
0.035,0.14
0.04,0.135
0.04,0.145
0.03,0.145
0.025,0.15
0.01,0.14
-0.005,0.125
-0.005,0.15
-0.01,0.17
-0.015,0.185
-0.02,0.195
-0.015,0.225
-0.02,0.215
-0.025,0.205
-0.025,0.2
-0.03,0.205
-0.015,0.205
-0.025,0.2
-0.035,0.18
-0.025,0.17
-0.045,0.17
-0.045,0.195
-0.035,0.195
-0.015,0.205
-0.005,0.195
-0.005,0.175
0.0,0.175
-0.01,0.165
-0.025,0.185
-0.03,0.18
-0.04,0.17
-0.04,0.16
-0.03,0.165
-0.04,0.17
-0.04,0.205
-0.04,0.215
-0.015,0.21
-0.025,0.205
-0.01,0.185
-0.025,0.18
-0.02,0.185
-0.025,0.185
-0.03,0.185
-0.04,0.185
-0.035,0.175
-0.03,0.18
-0.01,0.205
-0.01,0.205
-0.01,0.215
-0.01,0.19
-0.005,0.185
-0.005,0.165
-0.01,0.165
-0.025,0.165
-0.035,0.17
-0.035,0.165
-0.02,0.165
-0.02,0.185
-0.01,0.19
-0.015,0.2
-0.02,0.205
-0.02,0.2
-0.03,0.2
-0.045,0.185
-0.03,0.185
-0.03,0.185
-0.01,0.195
-0.02,0.185
-0.025,0.175
-0.015,0.17
0.0,0.175
0.0,0.195
0.005,0.21
0.0,0.205
0.01,0.195
0.005,0.17
0.02,0.185
0.025,0.205
0.03,0.215
0.025,0.24
0.03,0.24
0.03,0.235
0.045,0.235
0.07,0.25
0.085,0.26
0.105,0.265
0.11,0.26
0.12,0.24
0.125,0.225
0.13,0.23
0.14,0.23
0.155,0.225
0.155,0.2
0.145,0.18
0.15,0.19
0.15,0.2
0.15,0.21
0.125,0.225
0.105,0.215
0.1,0.195
0.08,0.185
0.06,0.165
0.03,0.175
0.025,0.19
0.02,0.195
0.025,0.185
0.0,0.205
-0.015,0.21
-0.03,0.23
-0.04,0.2
-0.06,0.19
-0.055,0.175
-0.07,0.145
-0.07,0.15
-0.075,0.155
-0.095,0.16
-0.095,0.165
-0.07,0.155
-0.07,0.16
-0.05,0.17
-0.055,0.185
-0.07,0.185
-0.065,0.18
-0.095,0.155
-0.095,0.15
-0.105,0.14
-0.105,0.145
-0.13,0.135
-0.115,0.14
-0.075,0.135
0.0,0.135
0.125,0.15
0.29,0.17
0.485,0.15
0.73,0.14
0.985,0.15
1.235,0.2
1.45,0.3
1.595,0.42
1.615,0.55
1.505,0.64
1.27,0.715
0.955,0.705
0.615,0.655
0.31,0.54
0.06,0.395
-0.09,0.235
-0.165,0.095
-0.18,0.015
-0.175,0.015
-0.135,0.06
-0.1,0.11
-0.09,0.14
-0.095,0.155
-0.09,0.17
-0.1,0.15
-0.12,0.16
-0.145,0.15
-0.165,0.14
-0.175,0.135
-0.175,0.11
-0.175,0.125
-0.18,0.135
-0.185,0.14
-0.19,0.145
-0.2,0.125
-0.18,0.145
-0.17,0.145
-0.16,0.165
-0.16,0.155
-0.16,0.15
-0.16,0.125
-0.18,0.115
-0.19,0.105
-0.205,0.105
-0.21,0.115
-0.195,0.105
-0.17,0.11
-0.165,0.125
-0.155,0.135
-0.16,0.14
-0.175,0.135
-0.17,0.12
-0.17,0.115
-0.165,0.1
-0.155,0.105
-0.16,0.1
-0.17,0.095
-0.175,0.08
-0.165,0.08
-0.165,0.085
-0.155,0.11
-0.14,0.1
-0.125,0.1
-0.105,0.095
-0.105,0.065
-0.115,0.07
-0.125,0.06
-0.13,0.07
-0.135,0.06
-0.14,0.065
-0.125,0.05
-0.11,0.05
-0.08,0.055
-0.07,0.065
-0.065,0.05
-0.07,0.035
-0.09,0.025
-0.11,0.015
-0.105,0.025
-0.115,0.03
-0.11,0.025
-0.105,0.01
-0.09,-0.01
-0.07,0.0
-0.055,0.005
-0.045,0.015
-0.035,0.015
-0.035,0.005
-0.035,-0.005
-0.045,-0.02
-0.065,0.005
-0.075,-0.005
-0.08,-0.005
-0.08,0.0
-0.08,0.01
-0.065,0.02
-0.055,0.03
-0.04,0.015
-0.045,0.01
-0.04,0.0
-0.04,0.01
-0.035,0.02
-0.045,0.045
-0.05,0.06
-0.035,0.065
-0.025,0.065
-0.01,0.075
-0.005,0.095
0.0,0.125
0.0,0.12
0.0,0.13
0.0,0.135
-0.015,0.14
-0.02,0.155
-0.02,0.165
-0.025,0.15
-0.055,0.145
-0.04,0.145
-0.02,0.155
-0.02,0.17
-0.015,0.19
-0.01,0.19
-0.015,0.16
-0.02,0.155
-0.025,0.15
-0.05,0.155
-0.035,0.14
-0.05,0.135
-0.06,0.14
-0.06,0.14
-0.05,0.155
-0.03,0.17
