0,1
-0.005062344139651009,0.04609725685785536
-0.02076059850374068,0.04633416458852868
-0.046857855361596035,0.05102244389027431
-0.06817955112219454,0.04533665835411471
-0.08953865336658362,0.0343640897755611
-0.10586034912718212,0.008329177057356606
-0.10713216957605998,0.007356608478802991
-0.09331670822942639,0.011508728179551122
-0.07946384039900256,0.020723192019950123
-0.0805610972568579,0.02997506234413965
-0.08170822942643408,0.044289276807980046
-0.07291770573566081,0.038578553615960104
-0.07431421446384046,0.027805486284289277
-0.07081047381546135,0.031970074812967576
-0.06739401496259356,0.03600997506234414
-0.07908977556109731,0.03997506234413965
-0.10078553615960106,0.028927680798004986
-0.13246882793017467,0.01295511221945137
-0.1391645885286784,0.0020822942643391514
-0.135847880299252,-0.008815461346633417
-0.12753117206982545,0.005324189526184537
-0.11421446384039902,0.01942643391521197
-0.09092269326683289,0.02355361596009975
-0.03268079800498758,0.017693266832917706
0.04557356608478802,0.011882793017456358
0.15880299251870322,0.015997506234413966
0.3120573566084787,-0.004937655860349129
0.5152743142144639,-0.01089775561097257
0.7435536159600997,-0.0068453865336658365
0.9818952618453866,-0.012680798004987533
1.195224438902743,0.04149625935162095
1.3936159600997504,0.1457356608478803
1.5170573566084786,0.2800124688279302
1.5255610972568578,0.4393142144638404
1.3891770573566085,0.5836159600997506
1.1578179551122194,0.6679052369077307
0.8565211970074812,0.67714463840399
0.5252369077306733,0.611284289276808
0.2289152119700747,0.4953990024937656
0.012605985037406509,0.3196134663341646
-0.1136533665835412,0.1438279301745636
-0.16991271820448883,0.003079800498753116
-0.18117206982543654,-0.09763092269326683
-0.16239401496259365,-0.12334164588528679
-0.12352867830423941,-0.0940274314214464
-0.09961346633416468,-0.03475062344139651
-0.08068578553615957,0.014563591022443891
-0.08670822942643397,0.04381546134663343
-0.09274314214463841,0.04801745635910225
-0.11875311720698256,0.032219451371571076
-0.1348503740648379,0.02140897755610973
-0.15098503740648395,0.010598503740648382
-0.16714463840399008,0.01480049875311721
-0.18322942643391527,-0.010997506234413961
-0.18928927680798013,-0.011770573566084786
-0.17526184538653378,-0.027493765586034908
-0.176209476309227,-0.01311720698254364
-0.17209476309226934,0.0063092269326683395
-0.18800498753117212,0.01569825436408978
-0.1740274314214465,0.03497506234413966
-0.1802244389027432,0.019177057356608483
-0.1767206982543642,0.008341645885286783
-0.1786408977556111,-0.017506234413965083
-0.1860972568578555,-0.008304239401496258
-0.17413965087281802,-0.014114713216957599
-0.18273067331670823,-0.029962593516209467
-0.1869326683291771,-0.035910224438902745
-0.18659600997506232,-0.03206982543640897
-0.17653366583541152,-0.023466334164588532
-0.18644638403990033,-0.010162094763092266
-0.19098503740648387,-0.0021571072319201967
-0.19987531172069828,0.010561097256857853
-0.18795511221945138,-0.006857855361596013
-0.19027431421446384,-0.039139650872817955
-0.17692019950124693,-0.03604738154613467
-0.17311720698254363,-0.027531172069825437
-0.18406483790523698,-0.023615960099750616
-0.18990024937655858,-0.03442643391521197
-0.20076059850374073,-0.045037406483790524
-0.19164588528678317,-0.05553615960099751
-0.20760598503740646,-0.04105985037406483
-0.20361596009975058,-0.04168329177057356
-0.19463840399002497,-0.022456359102244382
-0.17557356608478802,-0.018391521197007474
-0.1564463840399003,-0.04432668329177057
-0.16223192019950128,-0.06027431421446384
-0.1729675810473814,-0.07114713216957606
-0.15370324189526174,-0.057007481296758096
-0.13443890274314219,-0.07286783042394016
-0.14513715710723207,-0.06872817955112219
-0.15081047381546142,-0.0845511221945137
-0.1564713216957605,-0.08031172069825436
-0.16708229426433907,-0.0759850374064838
-0.16765586034912705,-0.07155860349127181
-0.15821695760598498,-0.042169576059850375
-0.14372817955112227,-0.052830423940149626
-0.1392518703241895,-0.07854114713216959
-0.13475062344139643,-0.084214463840399
-0.1302743142144639,-0.09487531172069825
-0.11581047381546128,-0.09051122194513715
-0.12138403990024937,-0.08614713216957605
-0.11195760598503746,-0.07680798004987532
-0.11248129675810481,-0.09743142144638405
-0.11301745635910232,-0.12790523690773067
-0.09851620947630924,-0.1332917705735661
-0.08901496259351616,-0.1186284289276808
-0.08452618453865335,-0.10399002493765586
-0.08007481296758101,-0.08943890274314213
-0.07562344139650878,-0.10492518703241896
-0.08118453865336661,-0.1153491271820449
-0.0967581047381546,-0.12572319201995014
-0.10239401496259348,-0.14114713216957606
-0.09802992518703246,-0.15154613466334166
-0.09862842892768087,-0.14694513715710722
-0.08923940149625931,-0.14230673316708228
-0.0948129675810474,-0.14756857855361594
-0.09537406483790523,-0.14780548628428927
-0.07593516209476314,-0.13307980049875312
-0.06153366583541142,-0.11839152119700748
-0.062132169576059826,-0.10376558603491272
-0.047768079800498686,-0.10917705735660849
-0.0534538653366583,-0.1195137157107232
-0.054164588528678226,-0.1349127182044888
-0.05990024937655858,-0.13529925187032418
-0.05062344139650876,-0.10572319201995013
-0.061334164588528584,-0.10612219451371571
-0.05701995012468819,-0.10148379052369076
-0.057655860349127175,-0.10673316708229426
-0.043254364089775676,-0.11199501246882793
-0.023877805486284376,-0.12223192019950124
-0.009526184538653393,-0.08250623441396508
0.009788029925187014,-0.06779301745635911
0.03412718204488785,-0.06807980049875312
0.04344139650872825,-0.06832917705735661
0.05771820448877807,-0.06856608478802992
0.05690773067331678,-0.058877805486284296
0.0511221945137158,-0.039201995012468835
0.04032418952618455,-0.019476309226932664
0.024600997506234457,0.00033665835411471334
0.018865336658354104,-0.0047630922693266825
0.00811720698254359,-0.004875311720698258
0.00743142144638409,0.015037406483790525
0.02174563591022438,0.029850374064837898
0.021047381546134725,0.04466334164588531
0.03029925187032423,0.03948877805486284
0.0345012468827931,0.014301745635910218
0.02366583541147138,0.00910224438902743
0.032805486284289365,-0.001184538653366582
0.016945137157107215,-0.006496259351620945
0.006134663341645918,-0.001758104738154631
-0.009713216957606075,0.018079800498753115
-0.03052369077306738,0.01298004987531172
-0.026284289276808037,0.012842892768079803
-0.017032418952618422,0.027705735660847886
-0.0077431421446383375,0.02756857855361597
0.006496259351621014,0.0374563591022444
0.005698254364089883,0.042356608478803015
0.014887780548628382,0.02220698254364091
0.013965087281795574,0.021970074812967588
0.00804239401496254,0.026720698254364086
0.007019950124688368,0.026408977556109714
0.000985037406483813,0.031159600997506226
-0.01007481296758106,0.03599750623441396
-0.0060473815461346,0.010822942643391523
-0.012007481296757994,0.01554862842892768
-0.002917705735660747,0.020224438902743155
-0.008815461346633358,0.04483790523690774
0.0002743142144638888,0.05447630922693267
0.009351620947630979,0.06415211970074813
0.003366583541147161,0.033765586034912726
0.017344139650872892,0.013341645885286788
0.006284289276808019,0.012880299251870328
0.00026184538653373224,0.007431421446384048
-0.010735660847880246,0.01203241895261846
-0.021695760598503644,0.01670822942643392
-0.01761845386533656,0.006384039900249383
-0.02849127182044886,0.011072319201995015
-0.014264339152119665,0.0057107231920199425
1.24688279302676e-05,0.020336658354114717
0.004351620947630974,0.024975062344139654
0.003665835411471363,0.024613466334164585
0.00800498753117207,0.019251870324189527
0.022319201995012583,0.028790523690773076
0.006658354114713272,0.013329177057356617
-0.003990024937655878,0.02781795511221946
-0.02462593516209477,0.04226932668329175
-0.02026184538653364,0.04174563591022443
-0.040922693266832844,0.031259351620947645
-0.026521197007481234,0.02579800498753118
-0.012057356608478842,0.02538653366583543
-0.012593516209476241,0.039937655860349114
0.0017955112219452118,0.04951371571072319
0.011172069825436504,0.044102244389027434
0.01046134663341658,0.023665835411471325
0.009725685785536231,0.013216957605985027
-0.021034912718204457,0.012730673316708227
-0.02187032418952617,0.012219451371571072
-0.027718204488778042,0.011708229426433917
-0.028591022443890224,0.03127182044887783
-0.024501246882792982,0.020935162094763107
-0.015436408977556049,0.0255985037406484
-0.011396508728179433,0.015199501246882796
-0.002381546134663237,0.054775561097256856
0.0016084788029926411,0.059339152119700755
0.0005486284289277776,0.058877805486284296
-0.015573566084787993,0.053428927680798016
-0.01175810473815464,0.022930174563591033
-0.007955112219451332,0.007418952618453878
-0.014139650872817988,0.006920199501246893
-0.010274314214463787,0.026408977556109756
-0.0014089775561095808,0.025910224438902757
0.007481296758104716,0.0304862842892768
0.03140897755610972,0.045099750623441404
0.0453366583541146,0.05466334164588531
0.054289276807980014,0.089214463840399
0.06824189526184543,0.1037780548628429
0.07716957605985042,0.08831670822942643
0.08602244389027436,0.07286783042394016
0.09477556109725688,0.05740648379052368
0.09349127182044886,0.051920199501246905
0.10221945137157112,0.046346633416458866
0.12100997506234418,0.05079800498753119
0.12486284289276811,0.04027431421446384
0.13377805486284283,0.019763092269326696
0.12784289276807986,0.014301745635910232
0.13713216957605984,0.03384039900249376
0.11668329177057363,0.05339152119700746
0.12662094763092263,0.05288029925187032
0.10708229426433907,0.04229426433915212
0.09307980049875314,0.01675810473815463
0.10468827930174557,0.01623441396508729
0.08180798004987533,0.010810473815461352
0.05945137157107239,0.01061097256857857
0.04736907730673312,-0.009289276807980043
0.015336658354114685,-0.0237780548628429
0.02298004987531177,-0.017855361596009978
0.010074812967580948,0.003329177057356608
0.00639650872817954,0.04457605985037408
0.00689526184538658,0.055635910224438895
0.001670822942643424,0.03635910224438904
-0.014102244389027296,0.02662094763092268
-0.020249376558603482,0.016458852867830442
-0.02159600997506228,0.005935162094763094
-0.032992518703241935,0.015112219451371589
-0.054364089775561175,-0.0007980049875311868
-0.07063591022443894,0.008341645885286797
-0.06184538653366589,-0.012369077306733159
-0.06799251870324186,0.0020698254364089896
-0.07417705735660851,0.016583541147132175
-0.07032418952618447,0.021122194513715706
-0.05660847880299247,0.030586034912718205
-0.05796758104738153,0.019962593516209465
-0.044401496259351636,0.01431421446384043
-0.055972568578553594,0.01871571072319203
-0.052643391521197014,0.008092269326683332
-0.07933915211970077,0.002443890274314242
-0.0910099750623442,-0.028241895261845368
-0.10768079800498753,-0.05386533665835412
-0.10935162094763085,-0.0494014962593516
-0.07099750623441392,-0.019850374064837903
0.002418952618453818,0.00978802992518707
0.11586034912718196,0.014376558603491268
0.28933915211970074,-0.0010972568578553332
0.5078179551122195,-0.021633416458852847
0.7413216957605985,-0.02711970074812968
0.9898877805486284,-0.007618453865336661
1.238441396508728,0.04187032418952619
1.4319950124688279,0.13632169576059852
1.5356109725685783,0.2457356608478803
1.5143142144638404,0.3651496259351621
1.3580548628428928,0.49457605985037406
1.1068952618453864,0.594077306733167
0.7807356608478803,0.6336408977556109
0.4696758104738155,0.5682044887780549
0.2036284289276808,0.42269326683291775
0.022618453865336674,0.23715710723192018
-0.08836658354114701,0.07668329177057356
-0.1294014962593516,-0.038753117206982546
-0.12546134663341646,-0.10421446384039898
-0.10155860349127177,-0.12470074812967581
-0.07263092269326676,-0.100286783042394
-0.048690773067331605,-0.06083541147132167
-0.05470074812967585,-0.011384039900249332
-0.08067331670822941,0.03314214463840398
-0.11657107231920194,0.03769326683291771
-0.1474064837905238,0.03224438902743143
-0.1733042394014963,0.00672069825436411
-0.16422693266832933,0.006134663341645891
-0.1500997506234415,0.01056109725685786
-0.1509351620947631,0.009962593516209484
-0.14179551122194523,0.004401496259351628
-0.13264339152119708,-0.006197007481296729
-0.13850374064837911,-0.026783042394014966
-0.14941396508728189,-0.04234413965087282
-0.15036159600997512,-0.03290523690773066
-0.16142144638404,-0.023366583541147123
-0.15266832917705742,-0.00882793017456357
-0.1592269326683292,-0.009326683291770554
-0.15120947630922704,-0.0048503740648379035
-0.15372817955112228,0.004638403990024936
-0.14684538653366586,0.01413965087281796
-0.16563591022443896,0.018578553615960114
-0.1749875311720699,0.012842892768079789
-0.16478802992518704,-0.028266832917705736
-0.169638403990025,-0.04481296758104737
-0.16421446384039906,-0.046745635910224445
-0.16320448877805488,-0.0389152119700748
-0.16639650872817957,-0.01608478802992519
-0.16871571072319203,-0.013092269326683309
-0.17529925187032425,-0.029850374064837898
-0.1713591022443891,-0.04117206982543642
-0.16213216957605991,-0.022107231920199505
-0.16773067331670827,-0.03271820448877805
-0.1732917705735661,-0.043154613466334146
-0.16900249376558607,-0.07357855361596008
-0.1747755610972569,-0.0791147132169576
-0.1706733167082295,-0.08482543640897756
-0.16154613466334167,-0.07559850374064839
-0.16234413965087285,-0.061396508728179575
-0.16304239401496257,-0.05206982543640898
-0.15366583541147133,-0.03766832917705737
-0.14420199501246883,-0.06326683291770573
-0.1347007481296758,-0.04385286783042394
-0.13018703241895258,-0.03951371571072321
-0.13069825436408972,-0.030162094763092256
-0.13122194513715713,-0.04572319201995012
-0.13178304239401495,-0.06134663341645884
-0.1423690773067332,-0.08698254364089777
-0.1529426433915212,-0.09261845386533667
-0.14345386533665838,-0.08826683291770573
-0.14390274314214468,-0.07895261845386534
-0.12430174563591023,-0.0844763092269327
-0.11966334164588527,-0.09496259351620949
-0.10498753117206994,-0.09547381546134666
-0.11528678304239409,-0.11096009975062343
-0.08552369077306737,-0.08647132169576058
-0.09574812967581048,-0.09690773067331669
-0.09602244389027437,-0.10228179551122192
-0.09632169576059857,-0.11761845386533665
-0.1016583541147133,-0.1379551122194514
-0.09704488778054865,-0.14330423940149625
-0.10243142144638406,-0.13362842892768084
-0.1128428927680799,-0.1188778054862843
-0.1132169576059851,-0.11903990024937655
-0.09360349127182044,-0.12417705735660847
-0.08896508728179553,-0.12935162094763092
-0.06427680798004987,-0.12957605985037407
-0.054613466334164584,-0.09982543640897755
-0.054912718204488786,-0.09509975062344139
-0.06528678304239405,-0.09538653366583541
-0.05572319201995013,-0.11569825436408976
-0.07120947630922697,-0.13099750623441397
-0.08175810473815465,-0.12128428927680798
-0.082281795511222,-0.13155860349127182
-0.092780548628429,-0.12173316708229426
-0.0832543640897756,-0.12189526184538654
-0.07367830423940153,-0.12201995012468828
-0.06911471321695761,-0.12215710723192019
-0.044501246882793,-0.10233167082294266
-0.02991271820448882,-0.10248129675810476
0.004650872817955121,-0.07761845386533665
-0.0058354114713217164,-0.08776807980049875
0.003640897755610939,-0.10290523690773067
-0.016920199501246902,-0.10307980049875311
-0.01250623441396509,-0.07831670822942642
-0.028067331670822926,-0.06347880299251871
-0.023591022443890275,-0.03856608478802995
-0.009127182044887772,-0.03356608478802994
-0.009638403990024913,-0.0485286783042394
0.00986284289276812,-0.043491271820448874
0.024339152119700724,-0.02856608478802994
0.0438279301745636,-0.008703241895261837
0.03829177057356603,0.01620947630922695
0.0277306733167082,0.011134663341645923
0.027094763092269325,0.00605985037406484
0.016421446384039917,0.010960099750623453
0.0007481296758105049,-0.009164588528678297
-0.019950124688279336,0.005698254364089772
-0.020623441396508735,0.025610972568578555
-0.03125935162094767,0.02557356608478803
-0.026882793017456386,0.035561097256857854
-0.022468827930174573,0.01557356608478802
-0.013029925187032443,0.025561097256857873
-0.00854114713216958,0.03552369077306736
0.00593516209476308,0.05046134663341645
0.005374064837905201,0.06542394014962594
-0.0002743142144638333,0.050448877805486264
0.00907730673316709,0.03544887780548628
-0.006683291770573585,0.015374064837905238
-0.027381546134663426,0.000299251870324202
-0.04307980049875315,0.02022443890274314
-0.03876558603491276,0.025249376558603487
-0.04443890274314216,0.025336658354114694
-0.04008728179551124,0.020399002493765556
-0.04072319201995017,0.01036159600997505
-0.04133416458852868,0.01029925187032421
-0.022007481296758113,0.015211970074812925
-0.01769326683291772,0.025124688279301727
-0.013428927680798008,0.01503740648379051
-0.014226932668329195,-0.005012468827930189
-0.01004987531172069,-0.01017456359102245
-0.010822942643391509,0.004600997506234411
-0.016620947630922644,0.014301745635910218
-0.03239401496259353,0.024152119700748126
-0.033179551122194506,0.02902743142144637
-0.029002493765586057,0.013927680798004966
-0.019875311720698285,0.008778054862842888
-0.01572319201995015,0.013491271820448875
-0.006558603491271797,0.013167082294264332
-0.012406483790523726,0.02781795511221946
-0.013216957605985014,0.032518703241895264
-0.02402743142144642,0.01718204488778055
-0.029837905236907714,-0.0031546134663341385
-0.03058603491271822,0.0064962593516209866
-0.036271820448877834,0.01615960099750624
-0.03192019950124686,0.015947630922693273
-0.032518703241895264,0.03078553615960103
-0.02309226932668329,0.015610972568578546
-0.013640897755611003,0.005374064837905257
-0.004152119700748136,0.005074812967581055
-0.004663341645885333,0.029700748129675825
-0.020149625935162063,0.03431421446384042
-0.030573566084788062,0.03895261845386533
-0.03099750623441394,0.038603491271820445
-0.031408977556109774,0.013216957605985041
-0.04184538653366582,0.007817955112219444
-0.0322693266832918,0.0074314214463840345
-0.03271820448877805,0.012119700748129653
-0.03815461346633414,0.036857855361596026
-0.02360349127182043,0.021596009975062336
-0.029102244389027365,0.011284289276807968
-0.01956359102244387,0.025947630922693282
-0.030112219451371547,0.04056109725685786
-0.01572319201995015,0.055149625935162094
-0.026359102244388977,0.049675810473815474
-0.03208229426433912,0.0291770573566085
-0.04280548628428926,0.008703241895261865
-0.03355361596009976,-0.0067456359102244234
-0.03433915211970073,0.0028802992518703052
-0.040137157107231924,0.022518703241895255
-0.03593516209476311,0.032157107231920196
-0.01175810473815464,0.026807980049875307
0.012381546134663357,0.03148379052369077
0.021533665835411497,0.051159600997506244
0.030623441396508744,0.06081047381546137
0.029663341645885355,0.07039900249376563
0.028653366583541173,0.06996259351620951
0.0226558603491272,0.059488778054862856
0.031658354114713294,0.05906483790523692
0.010635910224438938,0.053690773067331665
0.03965087281795515,0.06830423940149633
0.05367830423940151,0.0929426433915212
0.06773067331670829,0.09258104738154616
0.1068827930174564,0.07725685785536157
0.1310349127182045,0.06198254364089778
0.13524937655860353,0.0716334164588529
0.13938902743142143,0.07120947630922697
0.1384663341645885,0.06068578553615964
0.14246882793017454,0.04506234413965088
0.11643391521197011,0.019488778054862876
0.10546134663341644,0.0040523690773067444
0.08965087281795514,0.008703241895261865
0.07912718204488783,0.02335411471321694
0.07908977556109731,0.022955112219451346
0.06465087281795517,0.012468827930174564
0.055835411471321705,0.012044887780548658
0.05765586034912723,0.0016583541147132397
0.06007481296758105,0.011396508728179572
0.042967581047381576,0.03134663341645885
0.026109725685785568,0.04153366583541149
0.009189526184538666,0.05199501246882793
-0.028154613466334133,0.0327930174563591
-0.031122194513715673,0.023877805486284265
-0.054912718204488786,0.010112219451371557
-0.05950124688279307,0.011159600997506236
-0.05975062344139653,0.026795511221945123
-0.06539900249376557,0.011982543640897764
-0.05630922693266832,0.0017705735660848154
-0.05230673316708229,0.0012842892768079872
-0.048316708229426464,0.0006733167082294267
-0.049289276807980065,0.029962593516209474
-0.07022443890274316,0.029264339152119706
-0.08610972568578557,0.028603491271820464
-0.09204488778054865,0.018054862842892788
-0.10305486284289278,0.012618453865336693
-0.10917705735660849,-0.012705735660847844
-0.09041147132169575,0.001932668329177073
-0.09173316708229429,0.01645885286783047
-0.09304239401496267,0.025985037406483807
-0.08931421446384041,0.020523690773067316
-0.09057356608478806,0.010037406483790562
-0.10184538653366582,0.009551122194513734
-0.10312967581047378,0.00902743142144638
-0.09450124688279299,0.003441396508728184
-0.08089775561097251,0.007817955112219471
-0.027319201995012476,-0.002817955112219467
0.06119700748129675,-0.013366583541147142
0.18973815461346635,-0.023778054862842873
0.36324189526184536,-0.019152119700748094
0.5817830423940149,-0.0345137157107232
0.8353491271820449,-0.03487531172069824
1.0989650872817955,-0.0052369077306733125
1.332581047381546,0.07441396508728179
1.5112094763092268,0.20408977556109725
1.5298753117206982,0.34869077306733165
1.4335536159600997,0.49822942643391516
1.207294264339152,0.6077680798004987
0.8910847880299253,0.6223067331670823
0.544925187032419,0.5719077306733167
0.25381546134663346,0.45653366583541155
0.037705735660847894,0.2711471321695761
-0.09336658354114713,0.10576059850374064
-0.1693516209476309,-0.039625935162094755
-0.1803117206982544,-0.12001246882793017
-0.12124688279301749,-0.1204364089775561
-0.08715710723192022,-0.07091022443890274
-0.04309226932668331,-0.006371571072319199
-0.053965087281795554,0.018142144638403995
-0.06482543640897764,0.04263092269326685
-0.09068578553615964,0.007119700748129676
-0.12154613466334169,-0.008379052369077294
-0.14238154613466336,-0.013827930174563574
-0.16320448877805488,-0.02926433915211968
-0.1689775561097257,-0.01462593516209476
-0.16472568578553615,-0.01995012468827928
-0.1504364089775561,-0.025286783042394012
-0.14614713216957603,-0.000648379052369058
-0.13183291770573569,0.00895261845386533
-0.13756857855361598,0.0035162094763092067
-0.14835411471321697,0.0030423940149625905
-0.15410224438902742,0.007605985037406476
-0.15986284289276803,-0.01785536159600995
-0.15558603491271816,-0.018366583541147147
-0.14624688279301745,-0.008852867830423938
-0.14687032418952617,-0.019301745635910222
-0.15754364089775558,-0.00977556109725683
-0.1632418952618454,-0.03019950124688281
-0.14916458852867825,-0.03569825436408974
-0.15036159600997506,-0.031209476309226936
-0.1519077306733167,-0.011720698254364087
-0.1390024937655861,-0.012219451371571072
-0.15169576059850381,-0.022693266832917697
-0.1450623441396509,-0.03319201995012469
-0.14907730673316716,-0.05385286783042392
-0.1486159600997506,-0.04978802992518702
-0.15336658354114713,-0.04104738154613466
-0.1730548628428928,-0.0476309226932668
-0.17735660847880302,-0.04448877805486284
-0.1859725685785536,-0.04644638403990026
-0.17385286783042397,-0.048478802992518666
-0.16097256857855363,-0.03539900249376557
-0.15738154613466337,-0.022057356608478823
-0.15331670822942645,-0.03331670822942642
-0.15897755610972575,-0.03911471321695756
-0.1594887780548629,-0.06460099750623444
-0.1600498753117207,-0.06993765586034911
-0.16563591022443896,-0.07524937655860348
-0.161284289276808,-0.06562344139650872
-0.1719700748129676,-0.07107231920199503
-0.16260598503740648,-0.0815336658354115
-0.15819201995012472,-0.08201995012468827
-0.1386284289276808,-0.07746882793017457
-0.12892768079800498,-0.07794264339152118
-0.12415211970074813,-0.05846633416458852
-0.10938902743142143,-0.05891521197007482
-0.12462593516209475,-0.08433915211970072
-0.12992518703241895,-0.10971321695760597
-0.13026184538653368,-0.1200872817955112
-0.13061097256857856,-0.12546134663341646
-0.12592269326683292,-0.11584788029925189
-0.12120947630922696,-0.10115960099750623
-0.1114339152119701,-0.09640897755610969
-0.11159600997506236,-0.11659600997506228
-0.10673316708229424,-0.12674563591022442
-0.0868453865336658,-0.12192019950124688
-0.08190773067331669,-0.10709476309226931
-0.0769950124688279,-0.10725685785536157
-0.07716957605985036,-0.09746882793017456
-0.07243142144638404,-0.1226932668329177
-0.07273067331670824,-0.12788029925187028
-0.07302992518703239,-0.13306733167082296
-0.08835411471321697,-0.14321695760598507
-0.09365336658354118,-0.13839152119700748
-0.0989152119700748,-0.11852867830423944
-0.10917705735660849,-0.12366583541147136
-0.10441396508728173,-0.11876558603491275
-0.08965087281795509,-0.12882793017456362
-0.08491271820448876,-0.11889027431421448
-0.060162094763092255,-0.09896508728179551
-0.07047381546134668,-0.10411471321695762
-0.055835411471321705,-0.10430174563591024
-0.06124688279301749,-0.12947630922693265
-0.05167082294264341,-0.14463840399002492
-0.052107231920199504,-0.13972568578553612
-0.05753117206982544,-0.11982543640897755
-0.06798004987531175,-0.11997506234413965
-0.073428927680798,-0.11011221945137159
-0.06880299251870325,-0.11021197007481295
-0.054152119700748125,-0.11027431421446379
-0.029476309226932673,-0.10533665835411468
-0.014788029925187074,-0.07046134663341647
-0.02509975062344133,-0.040623441396508725
-0.010411471321695731,-0.020785536159600992
-0.01076059850374067,-0.040910224438902715
-0.0011471321695760706,-0.04597256857855361
0.013416458852867796,-0.05603491271820446
0.017992518703241922,-0.041134663341645866
0.012593516209476352,-0.016221945137157134
0.01219451371571073,-0.016259351620947604
0.011820448877805534,-0.006259351620947595
0.0014214463840398484,-0.006159600997506232
0.010997506234413978,0.008940149625935145
0.020536159600997528,0.01397755610972573
0.02002493765586033,0.033965087281795536
0.00951371571072318,0.03900249376558601
0.003990024937655878,0.024039900249376522
-0.0015586034912717928,0.019064837905236887
-0.002094763092269303,0.009089775561097246
-0.0026184538653366562,0.019102244389027412
-0.008104738154613433,0.029114713216957522
-0.008578553615960105,0.05418952618453865
-0.00903990024937662,0.054364089775561064
-0.014576059850374079,0.04952618453865337
-0.010137157107231953,0.03465087281795509
-0.005673316708229459,0.029788029925187032
-0.0012593516209476463,0.029825436408977557
0.0031920199501246915,0.04483790523690773
-0.007331670822942643,0.034850374064837875
-0.0028678304239401486,0.014812967581047443
-0.01841645885286783,0.004812967581047434
-0.013927680798004993,-0.00023690773067330806
-0.019463840399002508,0.009775561097256913
-0.010000000000000009,0.024887780548628446
-0.01056109725685786,0.03506234413965087
-0.01608478802992519,0.04022443890274313
-0.016683291770573594,0.035349127182044915
-0.012306733167082307,0.030374064837905224
-0.018017456359102235,0.04031172069825434
-0.008703241895261837,0.0501620947630923
-0.004438902743142126,0.054962593516209524
-0.010187032418952635,0.03475062344139651
-0.015935162094763117,0.019538653366583503
-0.00659600997506235,-0.000685785536159611
-0.012182044887780574,-0.010847880299251877
0.002231920199501247,0.009039900249376565
0.0016708229426433963,0.018952618453865255
0.006097256857855365,0.03884039900249375
0.010498753117206966,0.03365336658354118
0.004925187032418926,0.028453865336658335
0.009376558603491236,0.02324189526184539
-0.0012344139650872776,0.033054862842892774
0.00824189526184535,0.03290523690773067
-0.0022194513715710906,0.022780548628428876
-0.027643391521197047,0.002593516209476343
-0.03794264339152123,-0.012643391521196978
-0.058142144638403975,0.007132169576059888
-0.05331670822942641,0.031982543640897754
-0.03847880299251871,0.04184538653366582
-0.023690773067331694,0.05664588528678305
-0.008877805486284307,0.0413715710723192
0.005847880299251845,0.01605985037406482
0.015536159600997496,0.010698254364089776
0.01521197007481298,0.01537406483790521
-0.005162094763092262,0.020062344139650856
-0.025561097256857845,0.03475062344139651
-0.04098503740648379,0.004351620947630974
-0.046421446384039916,0.008990024937655883
-0.03683291770573566,0.008653366583541211
-0.03224438902743143,0.018379052369077276
-0.027680798004987517,0.03315461346633414
-0.02319201995012468,0.04294264339152121
-0.00875311720698252,0.03773067331670826
-0.00941396508728179,0.022431421446384048
-0.005149625935162105,0.0021197007481296715
0.004064837905236901,0.011758104738154584
0.0032543640897755577,0.03139650872817956
-0.0175935162094763,0.026072319201995042
-0.023428927680798017,0.025735660847880315
-0.029214463840398996,0.02029925187032422
-0.019987531172069833,0.004950124688279378
-0.010698254364089776,0.024613466334164558
0.0035785536159601006,0.04438902743142148
0.007793017456359103,0.0691645885286783
0.02194513715710722,0.07387780548628431
0.02605985037406483,0.07354114713216953
0.03514962593516208,0.03319201995012472
0.049214463840398986,0.04279301745635916
0.05834164588528676,0.06244389027431424
0.06245635910224437,0.06210723192019957
0.061596009975062344,0.06174563591022447
0.05574812967581047,0.07137157107231917
0.0698877805486284,0.06602244389027434
0.08405236907730673,0.07073566084788024
0.11321695760598502,0.07544887780548626
0.11241895261845386,0.07514962593516206
0.12164588528678301,0.08986284289276814
0.13603491271820448,0.06448877805486286
0.13563591022443888,0.02411471321695763
0.1455361596009975,0.008728179551122206
0.14081047381546133,0.008304239401496216
0.1316209476309227,0.017867830423940134
0.12305486284289276,0.027394014962593527
0.11018703241895259,0.02698254364089775
0.10291770573566082,0.011807980049875322
0.10609725685785536,0.002019950124688308
0.10435162094763094,0.012593516209476296
0.09238154613466332,0.013528678304239372
0.07983790523690773,0.024688279301745664
0.06153366583541145,0.02587281795511226
0.0423441396508728,0.021945137157107275
0.03741895261845388,0.012755610972568554
0.02695760598503738,0.0030798004987531713
0.0011221945137157296,0.022967581047381558
-0.01491271820448875,0.012493765586034933
-0.030985037406483784,0.016770573566084745
-0.03694513715710723,0.006097256857855393
-0.032817955112219466,-0.004413965087281757
-0.0535910224438903,0.00024937655860357566
-0.04940149625935167,0.01995012468827928
-0.05018703241895264,0.03465087281795509
-0.05103491271820454,0.03917705735660848
-0.05198254364089777,0.03369077306733165
-0.04799251870324189,0.003204488778054848
-0.05911471321695763,-0.007331670822942615
-0.06533665835411476,-0.01783042394014961
-0.08155860349127181,-0.0033915211970074743
-0.08279301745635911,-0.008952618453865302
-0.09401496259351622,-0.009476309226932655
-0.08523690773067333,-0.01991271820448881
-0.07648379052369075,-0.010286783042393943
-0.08278054862842893,-0.020648379052369048
-0.07910224438902741,-0.0009975062344139696
-0.07538653366583548,0.013566084788029953
-0.0966708229426434,-0.006882793017456312
-0.09791770573566083,-0.02230673316708226
-0.0891521197007481,-0.0277306733167082
-0.05039900249376558,-0.023117206982543603
0.028354114713216944,-0.003566084788029944
0.1371945137157107,-0.0040149625935161914
0.2760473815461347,-0.01943890274314214
0.48992518703241894,-0.04475062344139652
0.7339027431421447,-0.06001246882793013
0.997917705735661,-0.04027431421446381
1.2469950124688278,0.039426433915212
1.456084788029925,0.14900249376558605
1.5602244389027433,0.2735536159600997
1.5393765586034913,0.3980798004987531
1.4085286783042394,0.5076558603491272
1.1426807980049876,0.5772568578553616
0.8468578553615961,0.6118453865336659
0.5310598503740648,0.5664214463840399
0.2553366583541147,0.44102244389027434
0.04966334164588526,0.2656857855361597
-0.0709476309226933,0.09036159600997506
-0.131571072319202,-0.0449501246882793
-0.12220698254364087,-0.09529925187032418
-0.10286783042394013,-0.10567331670822938
-0.06854114713216958,-0.08112219451371569
-0.04921446384039904,-0.05155860349127184
-0.04487531172069828,-0.02703241895261843
-0.050511221945137186,-0.01750623441396504
-0.07610972568578556,-0.007955112219451388
-0.14169576059850375,-0.008403990024937691
-0.16223192019950128,-0.0038653366583540905
-0.17774314214463838,-0.03426433915211968
-0.17319201995012468,-0.019638403990024922
-0.16365336658354118,-0.025012468827930123
-0.14413965087281796,-0.0004239401496259343
-0.12463840399002493,0.004139650872817924
-0.1401995012468828,-0.006346633416458858
-0.1307980049875312,-0.03189526184538649
-0.14154613466334165,-0.04245635910224438
-0.14749376558603494,-0.047967581047381525
-0.16376558603491276,-0.03847880299251871
-0.18547381546134661,-0.03396508728179548
-0.207643391521197,-0.03941396508728179
-0.21037406483790524,-0.039812967581047354
-0.19369077306733165,-0.0402493765586035
-0.18254364089775565,-0.020835411471321674
-0.17184538653366585,-0.016708229426433963
-0.1863840399002494,-0.017892768079800503
-0.17586034912718204,-0.024463840399002512
-0.18496259351620947,-0.03640897755610972
-0.19345386533665837,-0.04355361596009977
-0.1911845386533666,-0.035635910224438905
-0.18815461346633416,-0.037506234413965056
-0.1894638403990025,-0.039039900249376536
-0.1852493765586035,-0.05511221945137157
-0.18072319201995013,-0.06577306733167088
-0.17098503740648377,-0.05610972568578554
-0.17124688279301742,-0.056309226932668266
-0.16652119700748128,-0.04148379052369078
-0.15687032418952615,-0.04184538653366582
-0.1572817955112219,-0.07240648379052367
-0.1577306733167082,-0.07307980049875312
-0.14814214463840403,-0.06377805486284288
-0.1485411471321696,-0.06942643391521197
-0.1589152119700748,-0.07995012468827933
-0.16422693266832916,-0.08538653366583543
-0.16945137157107232,-0.0958229426433915
-0.1745885286783042,-0.09125935162094767
-0.16967581047381544,-0.08159600997506233
-0.16972568578553615,-0.06688279301745637
-0.15975062344139648,-0.07210723192019952
-0.159788029925187,-0.08734413965087284
-0.13982543640897757,-0.08263092269326688
-0.13983790523690776,-0.08296758104738156
-0.13988778054862844,-0.09330423940149629
-0.13493765586034914,-0.10860349127182042
-0.13502493765586038,-0.1238528678304239
-0.13013715710723195,-0.14905236907730673
-0.12024937655860347,-0.1442269326683292
-0.11536159600997506,-0.13441396508728182
-0.10044887780548628,-0.13457605985037402
-0.10047381546134665,-0.14467581047381545
-0.10051122194513717,-0.13472568578553618
-0.0855361596009975,-0.12980049875311722
-0.09058603491271819,-0.1149002493765586
-0.08566084788029925,-0.12507481296758102
-0.09077306733167081,-0.13527431421446384
-0.08594763092269325,-0.1604364089775561
-0.09110972568578553,-0.17548628428927684
-0.07625935162094764,-0.165498753117207
-0.07645885286783043,-0.145498753117207
-0.08660847880299251,-0.15053615960099748
-0.06674563591022444,-0.1355860349127182
-0.091857855361596,-0.1306733167082294
-0.09193266832917707,-0.13071072319201993
-0.08706982543640898,-0.1057356608478803
-0.0872568578553616,-0.09581047381546137
-0.0874937655860349,-0.09098503740648378
-0.08270573566084786,-0.12620947630922694
-0.07296758104738156,-0.1513715710723192
-0.07317955112219451,-0.16143391521197006
-0.07340399002493767,-0.1414837905236908
-0.0536284289276808,-0.13152119700748127
-0.04884039900249379,-0.11158354114713218
-0.02403990024937655,-0.0966708229426434
-0.024226932668329176,-0.07672069825436412
-0.004389027431421444,-0.04670822942643399
-0.004551122194513715,-0.02162094763092276
0.00022443890274315148,-0.011596009975062327
-0.010062344139650889,-0.011645885286783064
-0.015349127182044897,-0.03179551122194518
-0.005685785536159602,-0.0319700748129676
-0.005935162094763094,-0.03204488778054865
-0.0011471321695760428,-0.012057356608478786
0.0086284289276808,0.01801745635910218
-0.0065710723192019815,0.01307980049875307
-0.0067830423940149626,0.018142144638403968
-0.001982543640897755,0.0032044887780549036
-0.007206982543640897,0.0033167082294264794
-0.017431421446384043,0.018453865336658326
-0.01773067331670823,0.04350374064837903
-0.02810473815461345,0.048503740648379035
-0.04355361596009974,0.02841645885286781
-0.04902743142144639,0.008391521197007534
-0.04950124688279303,0.0034413965087282117
-0.02996259351620946,0.018578553615960114
-0.03538653366583541,0.03379052369077312
-0.02578553615960101,0.023952618453865315
-0.02112219451371572,0.029039900249376527
-0.031458852867830414,0.019127182044887725
-0.02175810473815462,0.029226932668329153
-0.01213216957605985,0.029364089775561097
-0.01754364089775562,0.05452618453865338
-0.02298004987531173,0.039600997506234414
-0.033466334164588524,0.019625935162094765
-0.0339152119700748,0.004588528678304227
-0.04437655860349127,0.004638403990024964
-0.03483790523690772,0.009775561097256913
-0.03532418952618453,0.019987531172069806
-0.03577306733167082,0.03516209476309223
-0.011234413965087287,0.030299251870324173
-0.016658354114713225,0.035324189526184546
-0.01206982543640897,0.035361596009975016
0.0025187032418952787,0.035436408977556066
-0.007980049875311715,0.02547381546134664
-0.01851620947630922,0.055448877805486296
-0.019114713216957596,0.0203491271820449
-0.0397506234413965,0.015162094763092271
-0.03536159600997507,1.246882793021209e-05
-0.030972568578553628,-6.23441396508384e-05
-0.021583541147132165,0.024975062344139654
-0.012144638403990035,0.03501246882793019
-0.01265586034912719,0.035024937655860344
-0.008129675810473816,0.02991271820448882
-0.013553615960099755,0.02476309226932666
-0.00894014962593516,0.03465087281795509
-0.019301745635910222,0.054513715710723276
-0.019650872817955106,0.054326683291770594
-0.015024937655860354,0.034102244389027425
-0.03537406483790524,0.008852867830423994
-0.03566084788029927,0.008665835411471368
-0.040897755610972586,0.008528678304239479
-0.03612219451371573,0.008416458852867847
-0.046309226932668326,0.03335411471321692
-0.041446384039900266,0.023179551122194497
-0.03155860349127183,0.017917705735660816
-0.006645885286783046,0.03765586034912716
-0.0017206982543641058,0.027394014962593527
0.003117206982543641,0.04216957605985039
-0.0120573566084788,0.04692019950124693
-0.017281795511221956,0.03163341645885287
-0.01754364089775562,0.006296758104738176
-0.027805486284289277,0.005972568578553605
-0.033054862842892774,0.010710723192019933
-0.028354114713216957,0.030461346633416375
-0.03866583541147134,0.03522443890274307
-0.02899002493765586,0.029975062344139602
-0.024389027431421434,0.019775561097256866
-0.024825436408977553,0.02956359102244388
-0.0052992518703241925,0.03930174563591021
-0.0008977556109725782,0.03902743142144638
0.003478802992518709,0.05867830423940151
0.017817955112219452,0.038316708229426455
0.01716957605985038,0.02291770573566082
0.02155860349127181,0.017568578553615932
0.02588528678304239,0.027256857855361583
0.005236907730673299,0.05197007481296756
0.004625935162094752,0.08670822942643391
0.014014962593516214,0.0764713216957606
0.018453865336658354,0.07122194513715707
0.04289276807980048,0.07594763092269324
0.07726932668329177,0.07566084788029925
0.0816084788029925,0.09532418952618454
0.10089775561097257,0.08997506234413966
0.10013715710723191,0.09960099750623441
0.1143516209476309,0.07423940149625935
0.11859102244389028,0.04390274314214471
0.1278927680798005,0.038603491271820445
0.13220698254364088,0.038241895261845404
0.11155860349127182,0.047930174563591055
0.1159351620947631,0.05259351620947639
0.110286783042394,0.05224438902743145
0.10465087281795513,0.04190773067331677
0.09901496259351622,0.03657107231920198
0.09341645885286783,0.04123441396508731
0.07302992518703243,0.035860349127182056
0.06786783042394016,0.030461346633416486
0.0580423940149626,0.005024937655860318
0.03379052369077308,-0.01541147132169568
0.010162094763092266,-0.025860349127181992
-0.002793017456359112,-0.021259351620947553
-0.005112219451371566,0.008528678304239423
-0.01688279301745635,0.02357855361596012
-0.018379052369077317,0.04395261845386533
-0.02992518703241895,0.01966334164588529
-0.02679551122194515,0.01562344139650873
-0.039351620947630936,0.021770573566084805
-0.032643391521197024,0.027967581047381618
-0.046783042394014956,0.03401496259351622
-0.0616209476309227,0.024750623441396558
-0.08197007481296759,0.010112219451371529
-0.08266832917705735,6.234413965089391e-05
-0.07854114713216956,-0.010311720698254367
-0.06938902743142146,-0.005835411471321661
-0.07017456359102245,0.01854114713216959
-0.06584788029925188,0.022930174563591033
-0.08148379052369077,0.032356608478803006
-0.08211970074812967,0.021807980049875275
-0.09280548628428928,0.011271820448877812
-0.07855361596009974,0.01573566084788025
-0.08955112219451372,0.020199501246882745
-0.09567331670822943,0.014688279301745655
-0.10683291770573568,0.004127182044887767
-0.11804239401496258,-0.02133416458852866
-0.11423940149625934,-0.031745635910224446
-0.11042394014962595,-0.032107231920199486
-0.08655860349127181,-0.01746882793017457
-0.06771820448877805,0.01713216957605984
-0.0038403990024937634,0.03673316708229424
0.08502493765586035,0.021346633416458816
0.2138778054862843,0.0009600997506233888
0.3927306733167082,-0.019401496259351614
0.5965211970074813,-0.029825436408977557
0.825286783042394,-0.03529925187032418
1.0640648379052369,-0.020748129675810467
1.277942643391521,0.04884039900249382
1.4618952618453864,0.1385660847880299
1.5558852867830424,0.2583416458852868
1.5298877805486284,0.40814214463840404
1.3640024937655861,0.54785536159601
1.113142144638404,0.6325436408977556
0.8023067331670823,0.627219451371571
0.4865211970074813,0.5368952618453865
0.22576059850374064,0.4065336658354115
0.030062344139650872,0.2111221945137156
-0.09061097256857856,0.055648379052369024
-0.15127182044887783,-0.054837905236907736
-0.1619201995012469,-0.1152369077306733
-0.14253117206982543,-0.1255486284289277
-0.11810473815461346,-0.07578553615960099
-0.0836284289276808,-0.010985037406483822
-0.06913965087281797,0.038678304239401495
-0.08961346633416459,0.06834164588528674
-0.10511221945137159,0.04802992518703242
-0.12058603491271822,0.007718204488778024
-0.14112219451371572,-0.027655860349127204
-0.16168329177057358,-0.02805486284289277
-0.17224438902743142,-0.023516209476309224
-0.17783042394014964,-0.029014962593516214
-0.20337905236907733,-0.019501246882793033
-0.19891521197007483,-0.024862842892768022
-0.19438902743142145,-0.04016209476309224
-0.1848503740648379,-0.025461346633416426
-0.18021197007481296,-0.015785536159600988
-0.16056109725685785,-0.0010847880299251766
-0.16591022443890274,0.008528678304239423
-0.15129675810473814,-0.011857855361596004
-0.14180798004987533,-0.02230673316708226
-0.15250623441396507,-0.0327930174563591
-0.14345386533665838,-0.013279301745635963
-0.144713216957606,-0.018728179551122215
-0.17140897755610973,-0.024214463840398992
-0.17856608478802993,-0.039650872817955096
-0.19123441396508728,-0.04506234413965088
-0.18943890274314212,-0.04046134663341644
-0.18317955112219453,-0.0210224438902743
-0.17233167082294265,-0.001907730673316732
-0.15674563591022445,-0.008142144638404014
-0.16610972568578555,-0.029763092269326663
-0.17516209476309227,-0.04664588528678304
-0.16366583541147134,-0.058665835411471356
-0.1814837905236908,-0.06067331670822945
-0.18356608478802994,-0.06259351620947629
-0.18991271820448877,-0.04926433915211964
-0.20077306733167083,-0.055561097256857817
-0.18624688279301746,-0.07145885286783044
-0.16150872817955111,-0.07190773067331674
-0.1566708229426434,-0.0420448877805486
-0.1618453865336658,-0.027069825436409012
-0.14709476309226932,-0.04225685785536154
-0.15736907730673316,-0.06763092269326682
-0.15265586034912718,-0.06317955112219448
-0.15798004987531172,-0.0637281795511222
-0.16321695760598504,-0.05922693266832918
-0.1633790523690773,-0.054650872817955054
-0.17345386533665835,-0.06003740648379047
-0.17345386533665835,-0.07536159600997505
-0.16839152119700748,-0.10058603491271823
-0.14831670822942644,-0.09571072319201995
-0.12822942643391522,-0.0808104738154613
-0.1181920199501247,-0.06089775561097255
-0.10316708229426434,-0.06109725685785533
-0.1230922693266833,-0.08134663341645887
-0.1379925187032419,-0.09659600997506235
-0.12790523690773067,-0.11175810473815462
-0.1327930174563591,-0.1118204488778054
-0.13271820448877805,-0.11688279301745635
-0.132643391521197,-0.1219451371571072
-0.13255610972568577,-0.13204488778054863
-0.12249376558603492,-0.1421321695760599
-0.10243142144638405,-0.11713216957605987
-0.09739401496259352,-0.11704488778054861
-0.07736907730673316,-0.09692019950124692
-0.08739401496259352,-0.10190773067331671
-0.08243142144638405,-0.10698254364089776
-0.07248129675810475,-0.1320947630922693
-0.07249376558603492,-0.14715710723192021
-0.06754364089775561,-0.14213216957605984
-0.07755610972568577,-0.13710723192019947
-0.06755610972568579,-0.14210723192019947
-0.08254364089775561,-0.1421571072319202
-0.07250623441396509,-0.15215710723192022
-0.07740648379052369,-0.14713216957605985
-0.082356608478803,-0.14199501246882795
-0.06734413965087283,-0.11689526184538651
-0.07234413965087282,-0.09185785536159602
-0.06240648379052369,-0.11694513715710719
-0.05748129675810475,-0.13703241895261842
-0.042556109725685784,-0.15708229426433915
-0.04265586034912718,-0.14710723192019948
-0.03773067331670823,-0.14704488778054858
-0.04771820448877805,-0.12192019950124688
-0.042730673316708226,-0.11683291770573562
-0.04270573566084788,-0.11175810473815456
-0.027618453865336658,-0.10165835411471325
-0.01754364089775561,-0.07657107231920202
0.00245635910224439,-0.051359102244389054
0.02743142144638404,-0.031209476309226936
0.027331670822942643,-0.026122194513715724
0.04221945137157107,-0.03612219451371568
0.04709476309226933,-0.05613466334164585
0.042007481296758103,-0.0510598503740648
0.026920199501246883,-0.04091022443890274
0.021857855361596013,-0.030723192019950107
0.016783042394014965,-0.005511221945137146
0.011695760598503743,-0.0003366583541146717
0.006608478802992518,0.009850374064837963
0.001521197007481297,0.030112219451371602
0.006433915211970074,0.05536159600997509
0.01135910224438903,0.06057356608478809
0.001221945137157109,0.04073566084788033
0.011097256857855365,0.025860349127182047
0.005947630922693269,0.015960099750623513
0.0007980049875311746,0.011059850374064872
-0.004438902743142141,0.031221945137157092
-0.014688279301745634,0.02644638403990024
-0.014937655860349125,0.011708229426433958
-0.025087281795511222,0.01200748129675816
-0.00019950124688278802,0.00725685785536162
-0.005274314214463834,0.027506234413965103
-0.0003740648379052334,0.042793017456359106
0.004501246882793019,0.0480798004987531
0.004364089775561099,0.03332917705735661
-0.005835411471321692,0.018491271820448907
-0.00104738154613466,0.013603491271820478
-0.011284289276807979,0.018740648379052427
-0.026558603491271822,0.023915211970074846
-0.016820448877805483,-0.0008728179551121817
-0.0070324189526184515,-0.005660847880299247
-0.002244389027431421,0.004563591022443914
0.022581047381546135,0.02980049875311719
0.017443890274314214,0.04999999999999999
0.017306733167082294,0.06024937655860352
0.007194513715710722,0.06548628428927683
-0.002967581047381546,0.035710723192019955
0.0018578553615960112,0.025885286783042416
-0.003354114713216955,0.03603491271820447
-0.018640897755610973,0.04115960099750621
-0.018952618453865335,0.03635910224438904
-0.039251870324189524,0.0365211970074813
-0.034551122194513714,0.01672069825436412
-0.019800498753117207,0.011945137157107266
-0.00997506234413965,0.022144638403990058
-0.005137157107231919,0.042356608478803015
0.01475062344139651,0.04750623441396512
0.014688279301745637,0.04268079800498753
0.014650872817955114,0.02275561097256862
-0.0003615960099750603,0.0177306733167083
-0.01036159600997506,0.032643391521196996
-0.020361596009975058,0.03250623441396505
-0.02539900249376558,0.0573940149625935
-0.03539900249376558,0.04229426433915212
-0.04038653366583541,0.02221945137157111
-0.030374064837905237,0.01718204488778058
-0.005349127182044888,0.02211970074812969
-0.010336658354114712,0.057057356608478826
0.00963840399002494,0.06693266832917705
0.014600997506234416,0.06678304239401495
-0.00046134663341645694,0.04157107231920193
-0.005610972568578551,0.03133416458852867
-0.010835411471321693,0.03110972568578546
-0.01609725685785536,0.03587281795511216
-0.0263715710723192,0.04067331670822938
-0.03164588528678305,0.035498753117206905
-0.031945137157107235,0.02543640897755617
-0.032244389027431423,0.0353366583541147
-0.02256857855361596,0.030274314214463804
-0.022942643391521196,0.045187032418952555
0.0016832917705735684,0.06007481296758105
0.006259351620947633,0.059950124688279316
0.005798004987531176,0.034788029925187036
0.02528678304239402,0.0245885286783043
0.03476309226932669,0.0193765586034913
0.034226932668329185,0.02910224438902742
0.028728179551122196,0.05881546134663346
0.01821695760598504,0.07862842892768085
0.022743142144638406,0.09347880299251865
0.027256857855361596,0.1084413965087282
0.041795511221945136,0.11340399002493767
0.041321695760598506,0.12331670822942642
0.07587281795511222,0.12321695760598506
0.10538653366583542,0.11811720698254363
0.10486284289276808,0.10799251870324189
0.12931421446384042,0.08285536159600998
0.13371571072319202,0.05761845386533665
0.14810473815461347,0.06234413965087282
0.14751870324189525,0.06699501246882794
0.14197007481296758,0.07165835411471327
0.13653366583541146,0.04648379052369078
0.13125935162094765,0.031396508728179506
0.13124688279301747,0.026309226932668295
0.116571072319202,0.026172069825436406
0.12233167082294265,0.05593516209476307
0.11361596009975061,0.07067331670822946
0.11044887780548629,0.06039900249376556
0.09288029925187032,0.045149625935162085
0.08081047381546135,0.010062344139650903
0.08416458852867831,-0.004812967581047378
0.07278054862842892,-0.01440149625935161
0.04634663341645885,0.01643391521197013
0.03450124688279302,0.01763092269326688
0.02204488778054863,0.0190773067331671
0.008827930174563592,0.030523690773067325
0.004862842892768081,0.04670822942643388
-0.019738154613466334,0.0675187032418953
-0.024825436408977556,0.07786783042394019
-0.025211970074812965,0.07285536159600997
-0.020798004987531173,0.04754364089775559
-0.0364214463840399,0.012044887780548685
-0.04701995012468828,-0.0034788029925186814
-0.05751870324189526,-0.018890274314214417
-0.06293017456359103,0.0058478802992519285
-0.07830423940149625,0.005760598503740666
-0.05871571072319202,0.005723192019950141
-0.06918952618453866,0.0006359102244389292
-0.05472568578553617,0.01543640897755616
-0.05032418952618454,0.02016209476309233
-0.05597256857855362,0.03487531172069824
-0.05170822942643392,0.054576059850374115
-0.06246882793017456,0.05921446384039902
-0.06839152119700748,0.02380299251870327
-0.08432668329177058,-0.0065960099750623225
-0.09028678304239401,-0.022007481296758113
-0.11123441396508728,-0.0073566084788029285
-0.1172069825436409,-0.01766832917705735
-0.11814214463840399,0.007069825436408994
-0.09908977556109726,-0.008179551122194484
-0.049987531172069825,0.0015710723192019493
0.029139650872817956,-0.008678304239401524
0.13825436408977557,-0.003915211970074772
0.2673940149625935,-0.009139650872817928
0.45652119700748134,0.005610972568578565
0.6405486284289277,-0.02467581047381545
0.8445635910224438,-0.024987531172069866
1.0735536159600998,-0.025336658354114694
1.2826184538653367,0.054376558603491276
1.4517456359102245,0.17416458852867833
1.5509600997506234,0.3039650872817955
1.5353366583541148,0.43382793017456356
1.4047630922693266,0.5237157107231921
1.1992019950124688,0.5885536159600997
0.923715710723192,0.6033167082294264
0.6182294264339152,0.5630299251870324
0.3427680798004987,0.47768079800498753
0.12231920199501248,0.3323940149625935
-0.033167082294264336,0.17214463840399008
-0.11360349127182044,0.016882793017456377
-0.15397755610972566,-0.09836658354114713
-0.1493142144638404,-0.13854114713216958
-0.11460099750623441,-0.10865336658354108
-0.09483790523690773,-0.058765586034912665
-0.09006234413965088,0.0010349127182044948
-0.07526184538653366,0.020822942643391462
-0.09046134663341646,0.010586034912718256
-0.11572319201995013,0.00031172069825435855
-0.12599750623441397,4.9875311720737336e-05
-0.15629675810473814,-0.005211970074812999
-0.16165835411471322,-0.015448877805486316
-0.16698254364089776,-0.030735660847880375
-0.1672568578553616,-0.030985037406483784
-0.1574438902743142,-0.03615960099750626
-0.15758104738154613,-0.011284289276808024
-0.167643391521197,0.008628428927680787
-0.1777431421446384,0.008516209476309267
-0.16793017456359102,-0.006683291770573585
-0.16820448877805486,-0.017057356608478846
-0.1686783042394015,-0.022468827930174573
-0.16948877805486284,-0.01788029925187029
-0.17074812967581046,-0.01822942643391523
-0.16758104738154614,-0.023528678304239437
-0.18002493765586036,-0.0438279301745636
-0.1730798004987531,-0.05410224438902739
-0.18173316708229426,-0.06458852867830422
-0.18081047381546134,-0.04026184538653366
-0.18512468827930173,-0.026221945137157143
-0.1843516209476309,-0.01750623441396504
-0.18311720698254363,-0.02413965087281794
-0.17619700748129677,-0.046047381546134636
-0.18345386533665836,-0.05800498753117206
-0.1849002493765586,-0.04473815461346631
-0.20069825436408978,-0.03613466334164589
-0.20104738154613466,-0.047082294264339186
-0.21609725685785536,-0.05763092269326686
-0.2010224438902743,-0.07785536159600992
-0.19099750623441397,-0.07795511221945134
-0.19598503740648376,-0.07294264339152112
-0.17109725685785537,-0.03793017456359099
-0.1762219451371571,-0.0380922693266833
-0.16632169576059852,-0.04844139650872814
-0.15629675810473814,-0.04895261845386534
-0.1662219451371571,-0.06946384039900244
-0.17604738154613467,-0.0999501246882793
-0.17086034912718204,-0.08024937655860342
-0.18067331670822945,-0.07556109725685783
-0.19047381546134665,-0.08586034912718205
-0.19526184538653366,-0.09113466334164588
-0.17501246882793017,-0.11130922693266831
-0.16467581047381546,-0.12138403990024937
-0.15427680798004986,-0.10135910224438904
-0.1438653366583541,-0.08129675810473813
-0.13340399002493766,-0.07633416458852865
-0.13794264339152118,-0.0864713216957606
-0.12746882793017456,-0.10664588528678304
-0.1370573566084788,-0.12178304239401494
-0.12668329177057358,-0.13688279301745632
-0.12638403990024938,-0.12688279301745636
-0.12109725685785536,-0.12184538653366583
-0.130785536159601,-0.1317955112219451
-0.130498753117207,-0.1266583541147132
-0.1301995012468828,-0.1314214463840399
-0.12486284289276808,-0.1361720698254364
-0.1295635910224439,-0.12099750623441402
-0.12423940149625935,-0.1109226932668329
-0.11889027431421446,-0.11089775561097254
-0.09359102244389028,-0.1109226932668329
-0.08330423940149626,-0.14584788029925183
-0.07309226932668328,-0.16576059850374064
-0.0878927680798005,-0.1606857855361596
-0.09775561097256857,-0.15062344139650874
-0.10755610972568579,-0.135573566084788
-0.112356608478803,-0.14547381546134663
-0.10713216957605985,-0.16026184538653365
-0.10188279301745636,-0.16998753117206983
-0.08660847880299252,-0.13478802992518696
-0.08633416458852868,-0.10961346633416458
-0.07103491271820449,-0.09951371571072315
-0.06576059850374065,-0.10942643391521195
-0.060586034912718204,-0.12930174563591018
-0.07541147132169576,-0.13921446384039898
-0.07526184538653367,-0.13415211970074808
-0.0700997506234414,-0.12907730673316709
-0.07988778054862844,-0.11391521197007481
-0.07468827930174564,-0.11370324189526188
-0.06950124688279302,-0.12839152119700747
-0.0493142144638404,-0.13800498753117207
-0.039139650872817955,-0.12271820448877807
-0.018965087281795513,-0.1024937655860349
-0.008790523690773065,-0.06728179551122193
0.0013466334164588603,-0.06206982543640899
0.006458852867830427,-0.05683291770573573
0.01149625935162095,-0.07657107231920196
0.0164713216957606,-0.0813216957605985
0.021483790523690774,-0.07107231920199503
0.0215211970074813,-0.05579800498753118
0.021571072319201995,-0.035486284289276804
0.0017082294264339146,-0.03513715710723192
0.006857855361596006,-0.019750623441396498
0.0020074812967581027,-0.009401496259351605
0.0071072319201994985,0.010935162094763085
0.012169576059850376,0.03125935162094762
0.007182044887780549,0.03157107231920203
-0.0028304239401496234,0.0319700748129676
-0.012880299251870321,0.022306733167082315
-0.01798004987531172,-0.002381546134663348
-0.028042394014962592,0.0029177057356608582
-0.028054862842892762,0.008204488778054853
-0.03305486284289277,0.028578553615960123
-0.03301745635910225,0.03403990024937659
-0.032967581047381546,0.034563591022443885
-0.022955112219451373,0.025012468827930123
-0.017930174563591018,0.010411471321695676
-0.017917705735660847,0.020785536159600937
-0.017867830423940145,0.03612219451371573
-0.032880299251870325,0.04148379052369072
-0.027930174563591016,0.016845386533665796
-0.04301745635910224,0.007157107231920201
-0.03312967581047382,-0.012493765586034877
-0.0282793017456359,0.002805486284289338
-0.023416458852867826,0.018154613466334124
-0.018541147132169578,0.02859102244389028
-0.01865336658354114,0.03403990024937659
-0.018790523690773064,0.034413965087281784
-0.013877805486284284,0.029688279301745668
-0.003940149625935155,0.044887780548628464
-0.008977556109725685,0.05501246882793015
-0.004052369077306724,0.04012468827930177
-0.014164588528678301,0.030261845386533648
-0.024276807980049872,-0.004563591022443858
-0.034364089775561095,-0.014351620947630872
-0.03941396508728179,-0.004189526184538606
-0.0344638403990025,0.006009975062344186
-0.02938902743142144,0.01125935162094771
-0.019226932668329175,0.01652119700748128
-0.019039900249376556,0.011745635910224483
-0.008815461346633413,0.0269077306733167
0.0014463840399002517,0.03193266832917707
-0.003229426433915203,0.061970074812967624
0.00706982543640898,0.07201995012468831
-0.017643391521197007,0.042107231920199495
-0.017394014962593508,0.027119700748129694
-0.032144638403990025,0.012119700748129736
-0.03687032418952618,0.012082294264339155
-0.03160847880299252,0.03201995012468822
-0.03629675810473815,0.03204488778054865
-0.025997506234413957,0.032169576059850324
-0.025723192019950124,0.03728179551122196
-0.010536159600997505,0.04236907730673317
0.0045885286783042475,0.04731920199501244
-0.005299251870324186,0.0521695760598504
-0.01022443890274314,0.03201995012468828
-0.01024937655860348,0.026970074812967593
-0.015324189526184532,0.011920199501246898
-0.02043640897755611,0.00689526184538658
-0.035573566084788025,0.02187032418952617
-0.04071072319201994,0.0418827930174564
-0.04087281795511221,0.03194513715710723
-0.04103491271820448,0.022069825436408952
-0.021197007481296756,0.03221945137157106
-0.01635910224438902,0.047294264339152126
-0.006546134663341641,0.04726932668329181
-0.021758104738154614,0.05216957605985045
-0.0220074812967581,0.05699501246882793
-0.022319201995012465,0.03690773067331671
-0.027680798004987524,0.046832917705735666
-0.018004987531172068,0.046758104738154616
-0.008366583541147124,0.05163341645885289
-0.0036408977556109667,0.046546134663341676
-0.003852867830423934,0.051471321695760575
0.020922693266832916,0.06147132169576064
0.025685785536159605,0.08157107231920202
0.06544887780548628,0.11165835411471325
0.07517456359102245,0.10164588528678309
0.08987531172069826,0.09149625935162098
0.09452618453865338,0.08132169576059844
0.10910224438902744,0.07618453865336655
0.11364089775561098,0.07104738154613471
0.11321695760598505,0.07599750623441393
0.10785536159600997,0.0558977556109726
0.10761845386533665,0.04582294264339154
0.10260598503740648,0.030710723192020006
0.10288029925187031,0.045635910224438914
0.1084788029925187,0.05056109725685787
0.1245635910224439,0.06057356608478809
0.1261346633416459,0.055448877805486296
0.1281920199501247,0.06528678304239405
0.10581047381546137,0.045112219451371616
0.09394014962593517,0.03512468827930176
0.07746882793017457,0.050473815461346716
0.03623441396508728,0.02114713216957609
0.014987531172069829,-0.007880299251870282
0.008403990024937656,-0.0017082294264338937
-0.003653366583541146,0.019638403990024922
-0.0164214463840399,0.041034912718204475
-0.024950124688279302,0.06739401496259356
-0.03413965087281796,0.05856608478802999
-0.028890274314214464,0.03930174563591021
-0.03401496259351621,0.029613466334164562
-0.03433915211970075,0.024513715710723194
-0.04478802992518704,0.02413965087281794
-0.07027431421446384,0.013640897755611059
-0.07572319201995012,-0.0017830423940149442
-0.09114713216957607,0.00789276807980055
-0.09660847880299253,0.017680798004987563
-0.10204488778054863,0.02751870324189526
-0.08254364089775562,0.04734413965087281
-0.07810473815461347,0.04715710723192018
-0.0786783042394015,0.04197007481296755
-0.054326683291770574,0.01672069825436412
-0.06501246882793017,0.011359102244389019
-0.06577306733167082,0.0009600997506234443
-0.08157107231920199,-0.014413965087281821
-0.09238154613466334,-0.014750623441396549
-0.10825436408977555,-0.03002493765586034
-0.11415211970074812,-0.040236907730673344
-0.09507481296758105,-0.020461346633416477
-0.050910224438902744,0.03433915211970073
0.023266832917705732,0.04916458852867828
0.15745635910224437,0.04402743142144633
0.33665835411471323,0.013940149625935205
0.565860349127182,-0.01618453865336661
0.8200997506234413,-0.026371571072319244
1.0843266832917706,-0.011596009975062327
1.3286159600997507,0.07316708229426433
1.5179177057356608,0.16793017456359105
1.6022568578553615,0.2777930174563592
1.5716458852867832,0.4026807980049876
1.3961221945137157,0.5175935162094764
1.1206982543640898,0.612431421446384
0.7953117206982543,0.637281795511222
0.4599376558603491,0.5520947630922692
0.20958852867830424,0.41193266832917713
0.014214463840399004,0.23183291770573566
-0.09614713216957606,0.06168329177057358
-0.1515087281795511,-0.06354114713216957
-0.136857855361596,-0.10879052369077308
-0.11719451371571073,-0.12899002493765588
-0.07253117206982543,-0.10417705735660848
-0.05778054862842893,-0.05926433915211965
-0.06302992518703242,-0.004376558603491232
-0.09824189526184539,0.040523690773067333
-0.11840399002493766,0.05046134663341645
-0.15360349127182044,0.040386533665835445
-0.1688279301745636,-0.00980049875311717
-0.16402743142144638,4.9875311720737336e-05
-0.16928927680798006,-0.00016209476309225757
-0.15955112219451373,-0.00038653366583540905
-0.1648503740648379,-0.015561097256857837
-0.1800872817955112,-0.030748129675810476
-0.18019950124688278,-0.05096009975062343
-0.18527431421446383,-0.061122194513715644
-0.1903865336658354,-0.031271820448877774
-0.18559850374064837,-0.0114089775561097
-0.1961221945137157,0.008453865336658428
-0.1870573566084788,0.003254364089775641
-0.17855361596009978,-0.0019451371571072018
-0.15566084788029927,-0.017144638403990053
-0.15845386533665837,-0.027394014962593527
-0.17694513715710725,-0.022793017456359088
-0.17602244389027433,-0.03847880299251871
-0.1803990024937656,-0.05450124688279301
-0.19466334164588528,-0.055910224438902756
-0.19345386533665837,-0.04761845386533664
-0.1965211970074813,-0.02442643391521193
-0.21369077306733164,-0.01612219451371566
-0.20002493765586035,-0.0025436408977555502
-0.2005860349127182,-0.02359102244389022
-0.1806857855361596,-0.034314214463840365
-0.17554862842892768,-0.04468827930174557
-0.1603990024937656,-0.03977556109725683
-0.1603491271820449,-0.03977556109725683
-0.16541147132169576,-0.03983790523690767
-0.1705860349127182,-0.07006234413965079
-0.17574812967581047,-0.09043640897755606
-0.18586034912718205,-0.0758977556109725
-0.19586034912718203,-0.08120947630922687
-0.2007980049875312,-0.0564214463840399
-0.20062344139650873,-0.04653366583541141
-0.17537406483790524,-0.05668329177057352
-0.16508728179551121,-0.06687032418952621
-0.1448129675810474,-0.062082294264339144
-0.1446009975062344,-0.057306733167082236
-0.13940149625935164,-0.06754364089775561
-0.13926433915211972,-0.06780548628428928
-0.13411471321695762,-0.09807980049875314
-0.1439526184538653,-0.12339152119700747
-0.14869077306733167,-0.11369077306733166
-0.14336658354114712,-0.09885286783042391
-0.14800498753117208,-0.084002493765586
-0.14760598503740646,-0.07907730673316704
-0.13718204488778057,-0.09417705735660847
-0.12673316708229426,-0.10426433915211969
-0.0963216957605985,-0.11938902743142149
-0.09591022443890274,-0.12452618453865338
-0.09552369077306733,-0.12463840399002496
-0.09513715710723192,-0.11973815461346632
-0.10977556109725685,-0.1297630922693267
-0.11443890274314215,-0.14972568578553613
-0.1141147132169576,-0.1546508728179551
-0.1088154613466334,-0.154501246882793
-0.1035286783042394,-0.1343142144638404
-0.09319201995012467,-0.12907730673316709
-0.08786783042394014,-0.1388902743142144
-0.08253117206982544,-0.12866583541147136
-0.0672069825436409,-0.1384413965087281
-0.0719077306733167,-0.13830423940149622
-0.06665835411471321,-0.12824189526184537
-0.07643391521197007,-0.12817955112219453
-0.07124688279301745,-0.15307980049875308
-0.07104738154613466,-0.17791770573566085
-0.07087281795511222,-0.17270573566084785
-0.08066084788029926,-0.16246882793017453
-0.08044887780548629,-0.15221945137157106
-0.10019950124688279,-0.13201995012468826
-0.08493765586034913,-0.13678304239401495
-0.07468827930174564,-0.14152119700748123
-0.059451371571072324,-0.13127182044887775
-0.0492643391521197,-0.1360473815461346
-0.024064837905236905,-0.12091022443890276
-0.028915211970074815,-0.12576059850374066
-0.008790523690773065,-0.14554862842892768
-0.008665835411471319,-0.1502493765586035
0.001421446384039897,-0.14487531172069823
0.0015211970074812953,-0.11448877805486285
0.001633416458852871,-0.08916458852867831
-0.008192019950124682,-0.04877805486284292
0.0019700748129675844,-0.01332917705735659
0.007157107231920208,-0.0028802992518702775
0.012319201995012477,-0.002481296758104712
0.007443890274314219,-0.00218204488778051
0.007543640897755617,0.023029925187032396
0.007630922693266831,0.018266832917705755
-0.007319201995012459,-0.001433915211970005
-0.012281795511221945,-0.011059850374064761
-0.022219451371571067,-0.005660847880299191
-0.012157107231920199,-0.005299251870324151
-0.02209476309226932,0.025124688279301755
-0.03199501246882793,0.025573566084788057
-0.02189526184538653,0.026109725685785512
-0.021758104738154614,0.016708229426433907
-0.01165835411471322,0.022182044887780583
-0.016571072319201997,0.012543640897755615
-0.026521197007481297,0.022842892768079825
-0.0365211970074813,0.033142144638404036
-0.05149625935162095,0.02852867830423944
-0.056533665835411466,0.00392768079800504
-0.05155860349127182,-0.0006608478802991868
-0.036571072319201994,-0.005274314214463782
-0.02654613466334165,0.015137157107231902
-0.02147132169576059,0.040561097256857914
-0.02145885286783042,0.03100997506234421
-0.011458852867830424,0.02140897755610971
-0.006508728179551115,0.021770573566084805
-0.006620947630922691,0.012007481296758105
-0.011708229426433917,0.02216957605985037
-0.016895261845386533,0.022356608478802997
-0.03211970074812968,0.022568578553615992
-0.03735660847880298,0.007780548628428974
-0.037605985037406475,-0.0070573566084787265
-0.03280548628428927,-0.001907730673316621
-0.037992518703241884,0.0032418952618454844
-0.038129675810473815,0.01837905236907733
-0.033291770573566075,0.033528678304239445
-0.013441396508728179,0.023703241895261906
-0.008578553615960091,0.01880299251870321
-0.0037281795511221946,0.01886533665835416
0.0011596009975062271,0.03387780548628433
-0.01892768079800499,0.03390274314214464
-0.03901496259351621,0.03394014962593522
-0.039077306733167075,0.01901496259351626
-0.029114713216957605,-0.0008977556109724949
-0.039077306733167075,0.009239401496259458
-0.02891521197007481,0.014426433915211978
-0.033740648379052364,0.039613466334164626
-0.018528678304239397,0.034812967581047405
-0.008279301745635903,0.0350249376558604
0.001982543640897755,0.02523690773067333
-0.012730673316708234,0.015399002493765579
-0.017493765586034916,0.020548628428927684
-0.017256857855361595,0.020598503740648366
-0.027007481296758104,0.025660847880299265
-0.03177057356608478,0.015748129675810463
-0.03150872817955112,0.010847880299251877
-0.03623441396508728,-0.009027431421446352
-0.04588528678304239,0.01610972568578556
-0.03551122194513716,0.031271820448877774
-0.03017456359102244,0.036496259351620985
-0.024912718204488773,0.04165835411471325
-0.014700748129675804,0.02677057356608481
-0.00956359102244389,0.026882793017456386
-0.019551122194513708,0.036895261845386496
-0.014600997506234413,0.046857855361596035
-0.029713216957605988,0.04183291770573566
-0.019862842892768073,0.03687032418952624
-0.020024937655860345,0.011920199501246898
-0.03019950124688279,0.0020448877805486765
-0.02538653366583541,0.032169576059850324
-0.030561097256857857,0.042281795511221965
-0.03072319201995012,0.05238154613466334
-0.020885286783042384,0.04746882793017454
-0.001097256857855361,0.05753117206982544
0.018628428927680796,0.057543640897755655
0.028354114713216964,0.06749376558603498
0.04799251870324189,0.08251870324189525
0.052581047381546134,0.08256857855361599
0.06218204488778054,0.07763092269326682
0.061807980049875304,0.07269326683291771
0.05648379052369078,0.07274314214463845
0.05619700748129676,0.09280548628428925
0.06599750623441397,0.1278802992518704
0.09076059850374064,0.12793017456359107
0.10551122194513715,0.11796758104738159
0.12018703241895261,0.09790523690773068
0.1448503740648379,0.097780548628429
0.14446384039900248,0.09263092269326689
0.14407730673316707,0.09744389027431422
0.11870324189526184,0.07234413965087289
0.11344139650872817,0.05239401496259355
0.10835411471321697,0.0324189526184539
0.10361596009975063,0.0174438902743142
0.10435162094763092,0.03244389027431421
0.09566084788029924,0.05241895261845392
0.09263092269326682,0.04738154613466333
0.08029925187032419,0.04234413965087286
0.07360349127182045,0.032493765586034895
0.06739401496259352,0.017855361596009978
0.05137157107231921,0.023516209476309224
0.025211970074812975,0.024513715710723194
-0.006446384039900242,0.05079800498753123
-0.008815461346633413,0.02728179551122195
-0.01701995012468828,0.033778054862842855
-0.026047381546134663,0.040037406483790505
-0.030710723192019947,0.025972568578553623
-0.035847880299251865,0.03643391521197009
-0.051284289276807976,0.056508728179551104
-0.04187032418952619,0.04624688279301742
-0.03743142144638403,0.02583541147132168
-0.0429426433915212,0.025336658354114694
-0.05341645885286783,0.019925187032419023
-0.05887780548628429,0.029650872817955143
-0.06442643391521197,0.014488778054862816
-0.07514962593516208,-0.0005112219451371969
-0.07097256857855362,-0.015511221945137155
-0.07187032418952619,-0.0005112219451371414
-0.07778054862842892,0.004463840399002494
-0.06362842892768081,0.0345137157107232
-0.07445137157107232,0.029576059850374092
-0.06523690773067331,0.004613466334164595
-0.07100997506234413,-0.010411471321695731
-0.11182044887780548,-0.010486284289276782
-0.11761845386533665,-0.010623441396508726
-0.09341645885286784,0.004264339152119767
-0.04417705735660848,0.004226932668329186
0.07507481296758103,-0.005748129675810454
0.24935162094763091,-0.0007231920199500808
0.4637281795511222,-0.015635910224438887
0.7181795511221946,-0.030523690773067325
0.9927680798004987,-0.0004239401496258788
1.2773441396508727,0.06461346633416465
1.5019451371571073,0.16962593516209484
1.6215960099750624,0.30958852867830416
1.5762967581047382,0.4594887780548628
1.3909725685785537,0.5744139650872817
1.0956608478802994,0.6294014962593515
0.7403366583541148,0.5944389027431422
0.4099875311720699,0.48447630922693263
0.12468827930174563,0.3345635910224438
-0.0505860349127182,0.16961346633416463
-0.13579800498753117,0.009675810473815494
-0.15598503740648378,-0.10026184538653365
-0.12614713216957607,-0.12518703241895257
-0.09130922693266832,-0.08517456359102243
-0.05149625935162094,-0.03019950124688281
-0.05167082294264339,0.014700748129675811
-0.06683291770573566,0.039576059850374046
-0.0970573566084788,0.014526184538653397
-0.12231920199501248,-0.0005486284289276666
-0.15256857855361597,-0.030548628428927693
-0.17783042394014964,-0.02554862842892769
-0.18802992518703243,-0.030523690773067325
-0.19819201995012467,-0.030436408977556118
-0.17339152119700746,-0.020361596009975058
-0.16375311720698255,-0.01029925187032421
-0.14935162094763094,0.014700748129675811
-0.1503491271820449,0.019675810473815503
-0.15179551122194512,0.019600997506234452
-0.1738778054862843,0.004513715710723232
-0.19163341645885287,-0.035561097256857854
-0.19,-0.020698254364089785
-0.19891521197007483,-0.01605985037406482
-0.2031920199501247,-0.0017206982543640503
-0.21249376558603494,-0.0027306733167081765
-0.19650872817955112,-0.009039900249376509
-0.19495012468827927,-0.010598503740648357
-0.18266832917705736,-0.012281795511221938
-0.18462593516209475,-0.0039526184538652975
-0.17584788029925186,-0.015436408977556104
-0.18658354114713216,-0.041571072319201985
-0.17692019950124688,-0.04229426433915212
-0.17203241895261845,-0.06263092269326681
-0.16204488778054862,-0.05768079800498749
-0.1770199501246883,-0.057556109725685756
-0.17700748129675808,-0.037493765586034955
-0.1920573566084788,-0.052531172069825494
-0.19713216957605983,-0.06263092269326681
-0.1921571072319202,-0.05280548628428933
-0.18214463840399003,-0.017992518703241922
-0.17208229426433913,-0.013192019950124645
-0.1619700748129676,-0.00844139650872816
-0.1668079800498753,-0.02871571072319201
-0.1566084788029925,-0.04907730673316707
-0.16138403990024938,-0.06936408977556102
-0.15620947630922694,-0.08961346633416462
-0.1710473815461347,-0.05987531172069821
-0.17596009975062343,-0.060087281795511205
-0.1858354114713217,-0.06532418952618452
-0.1756857855361596,-0.08551122194513716
-0.17046134663341644,-0.0856359102244389
-0.16521197007481297,-0.0707481296758104
-0.13986284289276807,-0.06082294264339144
-0.12455112219451371,-0.0709600997506234
-0.11922693266832918,-0.09617206982543641
-0.10394014962593516,-0.12140897755610969
-0.10860349127182047,-0.12662094763092263
-0.10831670822942643,-0.10677057356608477
-0.12300498753117207,-0.11685785536159604
-0.12268079800498753,-0.131857855361596
-0.127356608478803,-0.14678304239401496
-0.1269700748129676,-0.13663341645885285
-0.12159600997506234,-0.1314089775561097
-0.12122194513715712,-0.10619700748129673
-0.12084788029925186,-0.10593516209476311
-0.10047381546134664,-0.12073566084788029
-0.09016209476309228,-0.14562344139650873
-0.08988778054862842,-0.1505112219451371
-0.08965087281795511,-0.140361596009975
-0.07942643391521197,-0.15019950124688275
-0.08423940149625934,-0.1549501246882793
-0.08908977556109726,-0.15971321695760599
-0.09392768079800498,-0.1744638403990025
-0.1037281795511222,-0.15420199501246884
-0.09846633416458854,-0.12386533665835409
-0.09820448877805486,-0.11357855361596009
-0.08298004987531171,-0.11327930174563594
-0.08776807980049875,-0.12796758104738148
-0.06763092269326683,-0.13265586034912719
-0.06251870324189526,-0.1373940149625935
-0.06740648379052369,-0.12213216957605982
-0.06731920199501247,-0.12689526184538646
-0.0722069825436409,-0.12662094763092263
-0.057044887780548635,-0.13130922693266833
-0.05687032418952619,-0.13100997506234408
-0.03668329177057357,-0.12067331670822934
-0.0164713216957606,-0.08528678304239395
-0.031246882793017447,-0.059937655860349104
-0.00604738154613467,-0.05458852867830416
0.00415211970074815,-0.04423940149625938
0.009289276807980043,-0.05386533665835408
0.014401496259351623,-0.043491271820448874
0.01446384039900249,-0.028154613466334133
0.014501246882793029,-0.012842892768079761
0.0045012468827930335,-0.007481296758104716
-0.0004987531172069709,-0.00711970074812962
-0.005486284289276805,-0.011683291770573534
-0.010411471321695759,-0.0011970074812967524
-0.010336658354114708,0.024314214463840356
-0.015199501246882796,0.044812967581047414
-0.015062344139650866,0.045299251870324186
-0.00996259351620947,0.03574812967581048
-0.019937655860349124,0.026221945137157088
-0.004937655860349124,0.031708229426433865
-0.029975062344139644,0.03216957605985038
-0.0400498753117207,0.04263092269326685
-0.03512468827930175,0.033054862842892774
-0.035211970074812984,0.018503740648379063
-0.04523690773067332,0.003977556109725722
-0.0351995012468828,-0.0005236907730673535
-0.04012468827930175,0.014987531172069857
-0.020074812967581054,0.025473815461346583
-0.025024937655860356,0.04594763092269327
-0.02998753117206983,0.031396508728179506
-0.029962593516209474,0.006870324189526211
-0.039987531172069816,0.01733167082294268
-0.040037406483790526,0.012730673316708241
-0.05517456359102244,0.018042394014962604
-0.06536159600997507,0.0033915211970074743
-0.05054862842892768,-0.01122194513715713
-0.04573566084788029,-0.005822942643391504
-0.04094763092269326,0.004625935162094752
-0.03113466334164587,0.020024937655860386
-0.02630922693266833,0.03034912718204491
-0.026508728179551126,0.020623441396508735
-0.011670822942643377,0.020872817955112255
-0.01184538653366582,0.016059850374064877
-0.022007481296758113,0.031271820448877774
-0.027194513715710723,0.02640897755610977
-0.03241895261845386,0.016458852867830442
-0.032630922693266826,0.0015586034912717928
-0.042842892768079795,-0.0033416458852867925
-0.04304239401496259,-0.00321695760598506
-0.03319201995012468,0.006945137157107206
-0.03327930174563591,0.017182044887780523
-0.03829177057356607,0.02738154613466337
-0.018279301745635912,0.0075935162094763475
-0.0032169576059850324,0.007817955112219499
-0.013129675810473806,0.013004987531172074
-0.0030049875311720653,0.03319201995012472
-0.017917705735660844,0.03837905236907729
-0.03285536159600996,0.028566084788029966
-0.04281795511221944,-0.0011720698254363837
-0.03773067331670822,0.004152119700748136
-0.032556109725685775,-0.0005236907730672979
-0.017331670822942652,0.024788029925187083
-0.02206982543640898,0.05009975062344141
-0.016745635910224432,0.045473815461346656
-0.02144638403990025,0.050785536159600964
-0.006134663341645891,0.03605985037406484
-0.005872817955112228,0.031221945137157148
-0.000623441396508731,0.05633416458852869
-0.005386533665835427,0.051408977556109736
-0.015174563591022441,0.031483790523690824
-0.014950124688279304,0.01157107231920207
-0.024775561097256864,0.006708229426433954
-0.03963840399002495,0.021807980049875386
-0.04948877805486285,0.03190773067331676
-0.05435162094763093,0.04201995012468829
-0.044201995012468825,0.03214463840399007
-0.01910224438902744,0.02226932668329179
0.005872817955112228,0.022381546134663366
0.015760598503740647,0.037531172069825425
0.02561097256857854,0.057581047381546124
0.020411471321695768,0.06765586034912718
0.02517456359102245,0.05778054862842891
0.019912718204488783,0.06785536159600997
0.029638403990024945,0.05295511221945137
0.03432668329177059,0.06310473815461343
0.03908977556109726,0.07819201995012465
0.03887780548628428,0.09327930174563592
0.06866583541147131,0.0834164588528678
0.07842892768079801,0.07355361596009974
0.10815461346633418,0.08366583541147132
0.1429052369077307,0.06367830423940152
0.16263092269326684,0.07362842892768079
0.15734413965087282,0.06352867830423942
0.1470573566084788,0.023516209476309224
0.12674563591022442,0.0035411471321695753
0.11144638403990026,-0.001371571072319222
0.10610972568578556,0.00869077306733168
0.09582294264339153,0.018703241895261846
0.09553615960099751,0.023678304239401538
0.09017456359102244,0.028703241895261855
0.0848129675810474,0.008740648379052418
0.06447630922693266,0.0087905236907731
0.06427680798004987,0.003802992518703252
0.044401496259351636,0.023753117206982588
0.014950124688279318,-0.00635910224438907
-0.003965087281795496,-0.02148379052369076
-0.03223192019950123,-0.031596009975062345
-0.024850374064837887,-0.016633416458852857
-0.046783042394014956,-0.0015461346633416362
-0.05815461346633416,0.0038279301745636207
-0.07420199501246882,0.014563591022443922
-0.0702992518703242,0.005710723192019929
-0.06684538653366583,-0.007842892768079812
-0.05913965087281795,-0.0012593516209477018
-0.06236907730673317,0.010174563591022423
-0.06645885286783042,0.006296758104738176
-0.07625935162094763,0.0020448877805486765
-0.08155860349127182,-0.012630922693266822
-0.0870573566084788,-0.022718204488777982
-0.08264339152119701,-0.02306733167082292
-0.08316708229426434,0.0014962593516208988
-0.07859102244389028,0.01615960099750624
-0.08892768079800499,0.015960099750623458
-0.09930174563591024,0.005872817955112242
-0.08470074812967582,-0.009139650872817984
-0.0801995012468828,-0.004201995012468818
-0.090785536159601,-0.009326683291770554
-0.08650872817955113,0.0004239401496259898
-0.087356608478803,-0.019800498753117235
-0.09330423940149626,-0.05503740648379052
-0.05933915211970075,-0.045224438902743136
0.004663341645885305,-0.0353366583541147
0.10374064837905238,-0.02037406483790527
0.26288029925187034,-0.01036159600997505
0.4471072319201995,-0.020361596009975114
0.6913341645885287,-0.040361596009975076
0.9555610972568578,-0.03537406483790523
1.204713216957606,0.004526184538653388
1.4188653366583541,0.10946384039900248
1.5630174563591022,0.234426433915212
1.5821695760598504,0.3594139650872818
1.4763591022443892,0.469426433915212
1.275635910224439,0.5544638403990025
0.9850000000000001,0.5995137157107232
0.6794513715710724,0.5945635910224438
0.38400249376558604,0.5245885286783043
0.17364089775561098,0.3745760598503741
0.008329177057356627,0.18950124688279313
-0.08193266832917706,0.029488778054862885
-0.1172069825436409,-0.08556109725685779
-0.12746882793017456,-0.13558603491271817
-0.11278054862842893,-0.10568578553615954
-0.08306733167082295,-0.07577306733167083
-0.06839152119700749,-0.0409226932668329
-0.07371571072319202,-0.021072319201995038
-0.0940149625935162,-0.01618453865336661
-0.10927680798004988,-0.0011845386533665958
-0.13951371571072319,0.018865336658354104
-0.15467581047381546,0.003940149625935141
-0.16985037406483788,0.013965087281795519
-0.18001246882793018,-0.011009975062344135
-0.1701870324189526,-0.01602244389027435
-0.16537406483790523,-0.001047381546134707
-0.15559850374064838,-0.0010847880299251766
-0.15583541147132168,0.0038154613466334086
-0.15608478802992515,-0.02134663341645887
-0.17129675810473816,-0.036496259351620985
-0.17148379052369075,-0.04657107231920199
-0.1866583541147132,-0.046533665835411464
-0.17679551122194512,-0.02649625935162092
-0.16198254364089776,-0.0164713216957606
-0.14726932668329176,-0.011546134663341645
-0.15769326683291768,-0.01669576059850375
-0.13844139650872817,-0.01183291770573569
-0.14956359102244388,-0.011895261845386584
-0.1662219451371571,-0.006957605985037474
-0.15846633416458852,-0.002057356608478833
-0.1813216957605985,-0.022306733167082315
-0.17475062344139652,-0.05268079800498754
-0.1836783042394015,-0.0482294264339152
-0.1879426433915212,-0.04396508728179549
-0.19228179551122193,-0.02493765586034913
-0.18637157107231922,-0.0112593516209476
-0.1799501246882793,-0.022892768079800507
-0.17785536159600998,-0.034700748129675774
-0.16498753117206982,-0.04150872817955109
-0.16139650872817954,-0.04816708229426431
-0.15723192019950125,-0.044501246882792944
-0.15261845386533668,-0.05046134663341645
-0.1677431421446384,-0.06607231920199502
-0.1827556109725686,-0.09132169576059851
-0.1876932668329177,-0.08130922693266834
-0.18263092269326683,-0.0761845386533666
-0.1875561097256858,-0.07107231920199503
-0.17256857855361596,-0.07609725685785534
-0.1675561097256858,-0.0812344139650873
-0.1624937655860349,-0.08649625935162097
-0.1374438902743142,-0.0817705735660848
-0.13733167082294262,-0.07701995012468832
-0.1522069825436409,-0.06723192019950125
-0.15703241895261844,-0.07239401496259351
-0.15183291770573565,-0.09756857855361595
-0.15655860349127182,-0.11775561097256859
-0.1612094763092269,-0.11289276807980048
-0.1558728179551122,-0.1029551122194513
-0.16047381546134662,-0.10296758104738152
-0.15001246882793015,-0.112930174563591
-0.14453865336658353,-0.12790523690773065
-0.12405236907730671,-0.12785536159600996
-0.1085785536159601,-0.11283042394014958
-0.09810473815461346,-0.12779301745635907
-0.09768079800498751,-0.112718204488778
-0.09728179551122193,-0.1276059850374065
-0.1019077306733167,-0.15749376558603487
-0.09657107231920198,-0.17234413965087278
-0.11623441396508727,-0.16716957605985036
-0.11088528678304238,-0.14695760598503738
-0.11552369077306732,-0.13172069825436405
-0.10513715710723191,-0.14149625935162097
-0.0947506234413965,-0.16124688279301744
-0.06928927680798004,-0.1709600997506234
-0.06390274314214463,-0.16068578553615961
-0.053615960099750615,-0.1404239401496259
-0.05331670822942644,-0.1252369077306733
-0.06304239401496257,-0.14006234413965085
-0.07781795511221945,-0.14992518703241894
-0.08258104738154612,-0.16471321695760596
-0.08733167082294263,-0.1645261845386534
-0.09201995012468826,-0.15432668329177054
-0.08668329177057355,-0.1440773067331671
-0.09134663341645884,-0.1488279301745636
-0.0760224438902743,-0.1535910224438903
-0.06573566084788028,-0.13329177057356612
-0.03541147132169574,-0.11801745635910221
-0.02514962593516208,-0.1077805486284289
-0.014912718204488765,-0.10764339152119695
-0.009688279301745623,-0.10751870324189516
0.005548628428927699,-0.12238154613466334
0.005773067331670836,-0.11716957605985034
0.0059850374064838036,-0.0869077306733167
0.006221945137157112,-0.05662094763092268
-0.003553615960099746,-0.0363715710723192
-0.013291770573566064,-0.01612219451371566
-0.007992518703241885,-0.030885286783042365
0.0023067331670822977,-0.02554862842892769
0.007543640897755624,-0.00018703241895257072
0.007780548628428932,0.010124688279301797
0.002967581047381554,0.020361596009975114
-0.0018578553615960086,0.020548628428927684
-0.011720698254364087,0.0007231920199501363
-0.016558603491271834,-0.019002493765586048
-0.026384039900249373,-0.0036783042394015197
-0.026259351620947627,0.0017206982543641058
-0.026084788029925185,0.012069825436408999
-0.030872817955112222,0.027418952618453896
-0.03569825436408976,0.022780548628428987
-0.02048628428927679,0.018216957605985074
-0.015336658354114713,0.01871571072319206
-0.005211970074812958,0.009201995012468878
-0.015112219451371561,0.019588528678304296
-0.025012468827930165,0.0199002493765586
-0.029912718204488778,0.015199501246882796
-0.029763092269326677,-0.004413965087281813
-0.02963840399002493,-0.028940149625935108
-0.019488778054862835,-0.008403990024937635
-0.024376558603491263,0.012157107231920206
-0.02925187032418952,0.03265586034912715
-0.02910224438902742,0.033104738154613456
-0.02894014962593515,0.028615960099750648
-0.023778054862842887,0.014102244389027518
-0.028665835411471316,0.024576059850374088
-0.018578553615960086,0.02501246882793018
-0.008528678304239395,0.03536159600997513
-0.0285286783042394,0.03074812967581053
-0.033566084788029915,0.01615960099750624
-0.04856608478802992,-0.0034039900249376864
-0.04856608478802991,0.0020698254364089896
-0.028491271820448874,0.00754364089775561
-0.028354114713216957,0.017980049875311765
-0.018216957605985032,0.03342892768079808
-0.00807980049875312,0.028902743142144693
-0.0030049875311720653,0.014376558603491296
0.0020698254364089758,0.019812967581047336
0.00208229426433916,0.020249376558603482
0.002107231920199501,0.020573566084787998
-0.017855361596009964,0.03583541147132174
-0.022817955112219443,0.01612219451371566
-0.027743142144638397,-0.0035411471321695753
-0.027655860349127176,-0.008229426433915221
-0.017518703241895237,0.012094763092269312
-0.03231920199501245,0.03738154613466338
-0.03199501246882791,0.04758104738154617
-0.021620947630922677,0.05280548628428927
-0.021221945137157097,0.032992518703241935
-0.01588528678304238,0.023104738154613447
-0.005598503740648353,0.028104738154613507
-0.0003491271820448699,0.03300498753117209
-0.010137157107231926,0.02791770573566088
-0.014937655860349106,0.027855361596009987
-0.024700748129675806,0.007855361596009969
-0.02948877805486283,0.002867830423940121
-0.014276807980049863,0.01286783042394013
-0.019052369077306716,0.027817955112219517
-0.028827930174563574,0.04278054862842895
-0.02365336658354114,0.07278054862842892
-0.02355361596009975,0.06271820448877802
-0.028516209476309215,0.042643391521197005
-0.013591022443890266,0.042506234413965116
-0.003653366583541137,0.05735660847880303
-0.0037531172069825425,0.047206982543640974
-0.013877805486284284,0.04210723192019955
-0.039089775561097245,0.027069825436409012
-0.044314214463840394,0.022069825436409007
-0.03951371571072318,0.022057356608478795
-0.019700748129675802,0.04706982543640903
-0.0048503740648379035,0.0620947630922693
-0.00498753117206982,0.0620947630922693
0.019837905236907732,0.0670947630922693
0.014688279301745641,0.07205735660847884
0.029463840399002503,0.06694513715710726
0.034226932668329185,0.07678304239401496
0.028940149625935177,0.07665835411471328
0.03367830423940152,0.07658354114713223
0.04836658354114713,0.07654613466334165
0.043029925187032414,0.07150872817955117
0.05270573566084788,0.06645885286783043
0.062443890274314226,0.07637157107231923
0.0872069825436409,0.09627182044887789
0.11201995012468828,0.09119700748129678
0.14183291770573567,0.09109725685785536
0.16660847880299254,0.07092269326683293
0.1764339152119701,0.050723192019950125
0.15640897755610975,0.030511221945137224
0.14660847880299252,0.03533665835411476
0.11220698254364089,0.04523690773067335
0.11325436408977557,0.045112219451371616
0.0949127182044888,0.03500000000000003
0.11224438902743142,0.029887780548628395
0.12018703241895262,0.02983790523690777
0.11869077306733167,0.025037406483790492
0.12261845386533665,0.030573566084788006
0.1066209476309227,0.021433915211970078
0.09537406483790523,0.007531172069825454
0.06856608478802992,0.003827930174563565
0.0510349127182045,0.005224438902743156
0.012730673316708227,0.02662094763092271
-0.011359102244389033,0.03286783042394015
-0.04094763092269327,0.03376558603491275
-0.050972568578553604,0.009201995012468822
-0.0412219451371571,0.0042518703241894995
-0.03654613466334164,-0.0010099750623441817
-0.031845386533665844,0.028628428927680805
-0.04209476309226934,0.043354114713216985
-0.042256857855361596,0.05315461346633421
-0.04736907730673317,0.0430049875311721
-0.05250623441396508,0.037855361596009995
-0.057693266832917714,0.02766832917705736
-0.05798004987531173,0.01250623441396509
-0.0783790523690773,0.007456359102244348
-0.07886533665835413,0.007394014962593509
-0.07442643391521198,-0.01265586034912719
-0.07500000000000001,-0.017793017456359084
-0.06552369077306734,-0.032955112219451355
-0.06600997506234414,0.001907730673316732
-0.06643391521197008,0.02674563591022444
-0.07192019950124688,0.04659600997506236
-0.07741895261845386,0.021359102244389028
-0.08300498753117208,-0.008977556109725726
-0.08364089775561098,-0.03935162094763095
-0.07435162094763093,-0.029725685785536082
-0.04012468827930175,-0.03501246882793013
0.00410224438902744,-0.020211970074812957
0.07330423940149626,-0.015386533665835367
0.19749376558603493,-0.025548628428927633
0.3467331670822943,-0.03569825436408974
0.5459600997506234,-0.04582294264339154
0.7801870324189526,-0.045872817955112166
1.0194014962593516,-0.0008603491271820252
1.2485910224438903,0.059014962593516185
1.4527805486284289,0.13379052369077304
1.5869700748129676,0.23355361596009971
1.6161845386533666,0.32836658354114723
1.535436408977556,0.453279301745636
1.3397755610972568,0.5532543640897756
1.0692144638403989,0.6181546134663342
0.7587406483790523,0.6280299251870324
0.4783665835411471,0.5578802992518703
0.2430423940149626,0.4227431421446385
0.057780548628428935,0.267643391521197
-0.05244389027431421,0.11255610972568575
-0.10765586034912718,-0.012618453865336665
-0.13286783042394015,-0.08790523690773067
-0.13306733167082294,-0.12317955112219459
-0.12325436408977557,-0.11840399002493768
-0.09344139650872818,-0.07857855361596006
-0.08356608478802993,-0.038715710723191965
-0.0987281795511222,0.006134663341645918
-0.09885286783042393,0.025972568578553623
-0.12389027431421445,0.010860349127182034
-0.13389027431421446,-0.004201995012468818
-0.138927680798005,-0.029251870324189466
-0.14900249376558602,-0.024339152119700724
-0.15908977556109727,-0.009551122194513706
-0.1692019950124688,0.005162094763092262
-0.1793516209476309,-0.000149625935162101
-0.17951371571072322,-0.015386533665835422
-0.19463840399002494,-0.02562344139650874
-0.1947007481296758,-0.030835411471321683
-0.1947007481296758,-0.031084788029925203
-0.18965087281795512,-0.006296758104738176
-0.18957605985037407,0.0035411471321695753
-0.17957605985037406,-0.006620947630922691
-0.17477556109725684,-0.021720698254364013
-0.1702493765586035,-0.026870324189526118
-0.1611346633416459,-0.0321321695760598
-0.16253117206982542,-0.0174314214463841
-0.17453865336658353,-0.012718204488778084
-0.18218204488778056,-0.022967581047381558
-0.19051122194513714,-0.028254364089775552
-0.20437655860349127,-0.04879052369077308
-0.22360349127182044,-0.05961346633416459
-0.22293017456359102,-0.055760598503740655
-0.19706982543640897,-0.04216957605985033
-0.20068578553615962,-0.023740648379052376
-0.19359102244389026,-0.03534912718204486
-0.1856857855361596,-0.03693266832917702
-0.18203241895261846,-0.07335411471321701
-0.19276807980049876,-0.04951371571072316
-0.19799251870324186,-0.04531172069825434
-0.21298004987531172,-0.045723192019950065
-0.21785536159601,-0.06083541147132171
-0.21275561097256857,-0.08083541147132173
-0.20769326683291772,-0.09587281795511216
-0.22266832917705734,-0.09098503740648384
-0.21255610972568578,-0.07114713216957608
-0.21234413965087284,-0.04634663341645889
-0.19203241895261844,-0.05654613466334163
-0.19163341645885285,-0.056758104738154624
-0.1811221945137157,-0.0770074812967581
-0.16559850374064836,-0.08224438902743142
-0.1700997506234414,-0.08240648379052368
-0.16463840399002494,-0.07748129675810472
-0.16423940149625935,-0.07750623441396509
-0.17885286783042392,-0.07749376558603499
-0.18849127182044886,-0.10250623441396511
-0.16806733167082297,-0.11751870324189528
-0.17259351620947627,-0.10744389027431422
-0.15204488778054862,-0.09230673316708232
-0.15649625935162095,-0.07711970074812974
-0.14097256857855361,-0.07197007481296763
-0.14046134663341647,-0.10190773067331671
-0.145,-0.11193266832917703
-0.12957605985037407,-0.1319201995012469
-0.129214463840399,-0.13188279301745637
-0.12885286783042393,-0.1317705735660848
-0.1235286783042394,-0.1316209476309227
-0.12820448877805485,-0.1414713216957606
-0.11779301745635909,-0.1613341645885287
-0.12234413965087282,-0.1661720698254364
-0.12187032418952617,-0.1559725685785536
-0.1164214463840399,-0.12073566084788029
-0.11099750623441397,-0.1205361596009975
-0.11557356608478803,-0.1303865336658354
-0.11013715710723192,-0.14031172069825437
-0.11471321695760597,-0.17031172069825437
-0.10430174563591023,-0.17528678304239398
-0.09394014962593517,-0.16516209476309227
-0.1036284289276808,-0.1499376558603491
-0.10334164588528678,-0.1497007481296758
-0.10802992518703242,-0.14445137157107232
-0.09770573566084788,-0.15923940149625934
-0.08739401496259351,-0.16394014962593514
-0.08200748129675811,-0.13367830423940152
-0.07653366583541146,-0.133428927680798
-0.07113466334164588,-0.13324189526184538
-0.09074812967581047,-0.1331172069825436
-0.08041147132169577,-0.15802992518703238
-0.08507481296758104,-0.1679052369077307
-0.08473815461346633,-0.15270573566084786
-0.07442643391521198,-0.1424937655860349
-0.06410224438902742,-0.13223192019950125
-0.04377805486284289,-0.12195760598503741
-0.03845386533665836,-0.11670822942643388
-0.018092269326683286,-0.10642144638403989
-0.012718204488778043,-0.07608478802992519
-0.012356608478802988,-0.04076059850374064
-0.00706982543640898,-0.03543640897755612
-0.021795511221945132,-0.04019950124688276
0.00350374064837905,-0.03997506234413967
-0.006234413965087282,-0.054763092269326685
-0.00100997506234414,-0.02946384039900246
-0.015822942643391527,-0.01408977556109725
-0.015660847880299256,-0.013678304239401529
-0.03046134663341646,-0.008266832917705746
-0.015261845386533662,-0.017880299251870346
-0.01508728179551122,0.0075062344139651405
-0.014850374064837898,0.04294264339152115
-0.0046134663341645815,0.0483790523690773
-0.009389027431421448,0.04876558603491271
-0.02420199501246882,0.02911471321695769
-0.01905236907730673,0.029401496259351678
-0.023890274314214463,0.01472568578553618
-0.0487281795511222,0.035099750623441395
-0.048553615960099744,0.025498753117207007
-0.04841645885286783,0.030935162094763102
-0.048241895261845386,0.026433915211970138
-0.043017456359102244,0.016907730673316745
-0.027780548628428922,0.03235660847880306
-0.02751870324189526,0.05283042394014964
-0.03725685785536159,0.06832917705735664
-0.04199501246882793,0.053790523690773084
-0.026795511221945137,0.03918952618453875
-0.021683291770573557,0.014501246882793084
-0.031596009975062345,0.0047880299251870095
-0.03149625935162094,0.00011221945137157574
-0.05134663341645885,0.005486284289276777
-0.06115960099750624,0.01089775561097256
-0.05600997506234413,0.006284289276807964
-0.0708229426433915,0.006658354114713216
-0.045660847880299255,0.027032418952618487
-0.035511221945137145,0.04740648379052376
-0.015361596009975068,0.057755610972568594
-0.020236907730673312,0.05305486284289279
-0.0100997506234414,0.03827930174563593
-0.009937655860349115,0.028428927680798022
0.00021197007481296715,0.018553615960099745
-0.019625935162094765,0.03865336658354113
-0.03943890274314214,0.03879052369077313
-0.054164588528678295,0.03896508728179554
-0.05382793017456358,0.029127182044887845
-0.04337905236907731,0.024289276807980098
-0.02783042394014963,0.04441396508728179
-0.02223192019950125,0.05950124688279296
-0.011733167082294271,0.059576059850374063
-0.011284289276807996,0.03965087281795515
-0.005935162094763108,0.039700748129675834
-0.005623441396508735,0.014725685785536125
-0.010336658354114708,0.019700748129675816
-0.0050000000000000044,0.03467581047381546
-0.01461346633416459,0.03965087281795515
-0.03922693266832919,0.029625935162094774
-0.04881546134663341,0.024638403990024926
-0.05344139650872819,0.03962593516209478
-0.028067331670822926,0.04460099750623442
-0.027793017456359093,0.049538653366583585
-0.02258104738154615,0.04451371571072321
-0.002456359102244385,0.03456359102244394
-0.012418952618453855,0.024613466334164613
-0.0024688279301745553,0.024600997506234457
-0.0025436408977556058,0.019463840399002508
-0.00754364089775561,0.02935162094763094
-0.0275436408977556,0.0192269326683292
-0.032543640897755605,0.014214463840399039
-0.03756857855361595,0.014251870324189508
-0.04260598503740647,0.02930174563591026
-0.037643391521197,0.04935162094763096
-0.03765586034912717,0.06937655860349129
-0.012718204488778043,0.07438902743142145
0.002231920199501261,0.049351620947631014
0.022094763092269334,0.039314214463840425
0.03694513715710725,0.04422693266832922
0.031795511221945155,0.054052369077306706
0.021658354114713216,0.05889027431421445
0.01152119700748129,0.06369077306733167
-0.003615960099750626,0.07365336658354116
0.021246882793017452,0.07370324189526184
0.026097256857855355,0.08382793017456358
0.045947630922693244,0.10885286783042397
0.06581047381546135,0.11376558603491271
0.0806857855361596,0.11364089775561093
0.11556109725685784,0.0985411471321696
0.13047381546134662,0.073428927680798
0.15549875311720698,0.06832917705735658
0.15071072319201995,0.058192019950124685
0.15128428927680798,0.05800498753117206
0.14723192019950124,0.04780548628428932
0.1336783042394015,0.022593516209476305
0.15071072319201995,0.002418952618453818
0.1433291770573566,0.03735660847880301
0.1565211970074813,0.04745635910224438
0.1552369077306733,0.057730673316708225
0.14930174563591023,0.04326683291770572
0.13845386533665835,0.02406483790523689
0.11738154613466334,0.015162094763092271
0.09081047381546134,0.03648379052369077
0.06355361596009976,0.0379426433915212
0.04049875311720698,0.044426433915212005
0.026770573566084782,0.03572319201995011
0.007418952618453878,0.026770573566084754
-0.002381546134663348,0.0174438902743142
-0.022456359102244396,0.037743142144638475
-0.03765586034912718,0.057693266832917756
-0.04790523690773067,0.062456359102244396
-0.048154613466334165,0.04714463840399008
-0.053403990024937655,0.031820448877805496
-0.06359102244389027,0.011583541147132115
-0.043753117206982536,0.0114089775561097
-0.053965087281795505,0.01133416458852865
-0.06418952618453865,-0.0037531172069825702
-0.07946384039900249,-0.018915211970074786
-0.07982543640897755,-0.014077306733167039
-0.07026184538653366,-0.00428927680798008
-0.06071072319201996,0.020486284289276846
-0.05619700748129675,0.030324189526184542
-0.04673316708229426,0.0451620947630923
-0.037344139650872826,0.025024937655860335
-0.058004987531172066,0.024900249376558548
-0.07371571072319202,0.004725685785536116
-0.09452618453865336,0.0044887780548628076
-0.09536159600997507,-0.010773067331670771
-0.09119700748129676,-0.01598503740648377
-0.0520074812967581,-0.031134663341645885
0.0272069825436409,-0.0412219451371571
0.13648379052369075,-0.036309226932668304
0.29579800498753117,-0.021421446384039866
0.5051745635910224,-0.021546134663341654
0.7295511221945138,-0.02163341645885286
0.9888778054862842,-0.016670822942643382
1.2582044887780548,0.013291770573566064
1.4824937655860349,0.10321695760598504
1.6367581047381548,0.19806733167082302
1.7010224438902743,0.3178678304239402
1.6303241895261844,0.4327057356608479
1.4298004987531172,0.5176309226932668
1.1443640897755611,0.5476309226932669
0.8090523690773067,0.522568578553616
0.4938528678304239,0.4475062344139652
0.24371571072319204,0.3273566084788031
0.03354114713216959,0.18226932668329182
-0.06663341645885286,0.03719451371571075
-0.10684538653366582,-0.07288029925187023
-0.10208229426433915,-0.12293017456359098
-0.07229426433915213,-0.1130798004987531
-0.047481296758104724,-0.06329177057356611
-0.05271820448877805,-0.02844139650872818
-0.08290523690773066,-0.003566084788029944
-0.11306733167082293,-0.003578553615960156
-0.14316708229426434,0.0013466334164588534
-0.17326683291770573,0.0012593516209475908
-0.17829177057356607,0.001134663341645914
-0.16825436408977557,0.0010224438902742827
-0.1532418952618454,-0.004102244389027454
-0.13824189526184538,-0.00421446384039903
-0.14326683291770573,0.0006359102244388737
-0.12831670822942642,-0.004513715710723232
-0.1433915211970075,0.0002743142144638333
-0.1583915211970075,-0.009912718204488802
-0.18840399002493766,-0.025037406483790547
-0.19346633416458853,-0.035074812967581026
-0.18867830423940152,-0.020112219451371594
-0.1941147132169576,-0.005137157107231949
-0.17988778054862842,0.009738154613466332
-0.17614713216957606,0.009650872817955125
-0.15298004987531172,0.0045511221945137015
-0.15546134663341646,-0.015586034912718205
-0.1486284289276808,-0.015847880299251826
-0.1574563591022444,-0.021321695760598447
-0.18182044887780546,-0.022032418952618427
-0.19640897755610973,-0.033054862842892774
-0.20087281795511222,-0.05931421446384039
-0.2048129675810474,-0.06571072319201993
-0.2079800498753117,-0.05209476309226929
-0.21521197007481296,-0.038428927680797975
-0.22158354114713216,-0.029588528678304193
-0.2172069825436409,-0.025436408977556058
-0.202356608478803,-0.015972568578553614
-0.18725685785536159,-0.03624688279301741
-0.17205735660847882,-0.056359102244389
-0.1619077306733167,-0.06139650872817953
-0.17185785536159603,-0.07144638403990028
-0.17190773067331672,-0.07153366583541149
-0.17189526184538656,-0.09674563591022439
-0.19185785536159602,-0.08203241895261848
-0.21670822942643392,-0.06729426433915214
-0.20644638403990026,-0.04755610972568575
-0.20609725685785538,-0.03778054862842889
-0.2007356608478803,-0.04298004987531173
-0.20037406483790524,-0.05319201995012468
-0.18003740648379052,-0.07842892768079807
-0.169713216957606,-0.07369077306733168
-0.16440149625935163,-0.07900249376558605
-0.1540648379052369,-0.08927680798004989
-0.148715710723192,-0.09448877805486289
-0.15835411471321698,-0.10463840399002494
-0.16291770573566083,-0.12475062344139654
-0.15743142144638403,-0.11977556109725684
-0.14692019950124688,-0.10471321695760594
-0.14639650872817955,-0.08961346633416456
-0.16088528678304237,-0.10452618453865337
-0.145286783042394,-0.10440149625935158
-0.11970074812967582,-0.11936408977556112
-0.11910224438902743,-0.12430174563591023
-0.1085785536159601,-0.1292269326683292
-0.11306733167082295,-0.12412718204488776
-0.11263092269326683,-0.13400249376558604
-0.09715710723192018,-0.14389027431421444
-0.11172069825436409,-0.15869077306733162
-0.10624688279301744,-0.15339152119700747
-0.11076059850374065,-0.13805486284289273
-0.10027431421446385,-0.12271820448877802
-0.09477556109725686,-0.1173940149625935
-0.10430174563591021,-0.13708229426433913
-0.08881546134663341,-0.14683291770573562
-0.09840399002493765,-0.1415835411471321
-0.09299251870324189,-0.14138403990024936
-0.1025935162094763,-0.13610972568578547
-0.12224438902743141,-0.13582294264339143
-0.13189526184538652,-0.14554862842892766
-0.1265211970074813,-0.15522443890274315
-0.1161221945137157,-0.14983790523690768
-0.11574812967581047,-0.14433915211970075
-0.10037406483790523,-0.12386533665835409
-0.0899501246882793,-0.10341645885286777
-0.08453865336658353,-0.09806733167082293
-0.08412718204488777,-0.1127805486284289
-0.0837655860349127,-0.10755610972568574
-0.08347880299251868,-0.10730673316708228
-0.06822942643391519,-0.0970448877805486
-0.05800498753117207,-0.08673316708229423
-0.05283042394014961,-0.08144638403990018
-0.032568578553615946,-0.0860972568578553
-0.027256857855361596,-0.06566084788029924
-0.021870324189526183,-0.045149625935162085
-0.02153366583541147,-0.014600997506234448
-0.016147132169576056,0.01593516209476309
-0.015773067331670804,0.02142144638403992
-0.010386533665835418,0.026832917705735704
-0.0100997506234414,0.02229426433915216
-0.019875311720698244,0.027780548628428936
-0.019738154613466327,0.028291770573566077
-0.034625935162094765,0.02874064837905238
-0.04947630922693266,0.024214463840399048
-0.05930174563591022,0.019738154613466397
-0.03915211970074814,0.005336658354114732
-0.028965087281795504,0.01097256857855361
-0.023753117206982546,0.03154613466334166
-0.00846633416458853,0.04209476309226934
-0.01812967581047381,0.05255610972568581
-0.022793017456359102,0.048004987531172105
-0.03740648379052369,0.04851620947630925
-0.0421072319201995,0.04402743142144644
-0.05189526184538652,0.03446384039900252
-0.05674563591022443,0.03490024937655861
-0.07163341645885288,0.025386533665835376
-0.06149625935162095,0.035922693266832895
-0.05633416458852867,0.021521197007481285
-0.061159600997506225,0.012094763092269312
-0.05093516209476308,0.017605985037406513
-0.04574812967581046,0.0430049875311721
-0.045548628428927665,0.06837905236907732
-0.06539900249376558,0.05370324189526188
-0.06029925187032417,0.054014962593516236
-0.05528678304239402,0.0392768079800499
-0.05531172069825436,0.034488778054862834
-0.05038653366583541,0.039700748129675834
-0.0554862842892768,0.029900249376558607
-0.07057356608478804,0.035199501246882814
-0.0556359102244389,0.030536159600997537
-0.0606359102244389,0.035860349127182056
-0.04556109725685785,0.031084788029925203
-0.04041147132169575,0.05127182044887785
-0.035187032418952616,0.06647132169576059
-0.039950124688279305,0.05665835411471326
-0.029775561097256847,0.05684538653366589
-0.029600997506234406,0.027044887780548643
-0.029488778054862844,0.017256857855361574
-0.029314214463840388,0.007456359102244348
-0.03413965087281795,0.02270573566084788
-0.04390274314214464,0.03804239401496262
-0.04859102244389028,0.023416458852867805
-0.03822942643391521,0.023802992518703214
-0.017743142144638402,0.02416458852867831
-0.01719451371571072,0.034426433915211996
-0.021596009975062336,0.05470074812967585
-0.04103491271820449,0.06492518703241901
-0.04049875311720698,0.06016209476309231
-0.03997506234413964,0.055324189526184564
-0.03950124688279301,0.04037406483790523
-0.033977556109725686,0.04037406483790529
-0.03346633416458852,0.03547381546134665
-0.03795511221945137,0.040648379052369066
-0.04243142144638404,0.03588528678304237
-0.04690773067331671,0.026109725685785512
-0.03642144638403989,0.03124688279301746
-0.030972568578553607,0.04135910224438899
-0.025610972568578555,0.05153366583541147
-0.015299251870324174,0.051720698254364095
-0.02511221945137157,0.05694513715710725
-0.009999999999999995,0.022107231920199477
-0.01495012468827929,0.017206982543640836
-0.014975062344139645,0.012294264339152039
-0.02007481296758104,0.027456359102244365
-0.025224438902743146,0.02769326683291773
-0.025399002493765588,0.023004987531172028
-0.015511221945137155,0.03325436408977556
-0.010610972568578556,0.038466334164588556
-0.010723192019950131,0.05360349127182046
-0.005723192019950127,0.05871571072319204
-0.0007356608478802928,0.08384039900249374
-0.005810473815461334,0.09890274314214464
0.01905236907730673,0.08390274314214463
0.04385286783042394,0.07891521197007484
0.03869077306733168,0.08894014962593516
0.04352867830423941,0.07905236907730673
0.05336658354114715,0.09423940149625937
0.07322942643391522,0.0795261845386534
0.09314214463840399,0.059725685785536164
0.09806733167082295,0.06993765586034917
0.13796758104738155,0.09006234413965092
0.14780548628428927,0.10017456359102245
0.15266832917705736,0.1052493765586035
0.1425062344139651,0.09031172069825438
0.14244389027431423,0.05534912718204488
0.12258104738154613,0.04033665835411471
0.11294264339152121,0.045324189526184555
0.09870324189526185,0.0453117206982544
0.09998753117206982,0.045324189526184555
0.11184538653366584,0.030386533665835436
0.1093640897755611,0.020461346633416422
0.12258104738154615,0.030635910224438845
0.12635910224438907,0.04099750623441395
0.11554862842892769,0.05160847880299252
0.10986284289276807,0.04255610972568574
0.0740274314214464,0.0237780548628429
0.042693266832917715,0.01519950124688274
0.005598503740648374,0.031645885286783026
-0.027344139650872817,0.03299251870324188
-0.04607231920199501,0.03415211970074811
-0.04044887780548628,0.035024937655860344
-0.045361596009975066,0.0355486284289277
-0.04552369077306733,0.03576059850374064
-0.040773067331670826,0.010648379052369095
-0.04604738154613467,0.03036159600997501
-0.05125935162094763,0.040074812967581086
-0.046421446384039895,0.0199002493765586
-0.05662094763092269,0.02983790523690777
-0.06694513715710723,0.009812967581047383
-0.07236907730673317,0.02477556109725687
-0.07291770573566085,0.029700748129675825
-0.09356608478802991,0.024663341645885295
-0.1042643391521197,0.014625935162094816
-0.0999501246882793,0.019675810473815447
-0.09066084788029925,0.019750623441396498
-0.08134663341645884,0.03482543640897756
-0.08703241895261846,0.034950124688279294
-0.08765586034912717,0.03501246882793019
-0.09834164588528678,0.010112219451371585
-0.0990648379052369,-0.004825436408977535
-0.05986284289276808,-0.024750623441396502
-0.005685785536159602,-0.009738154613466332
0.09851620947630924,-0.009713216957606019
0.23274314214463837,0.0003615960099750404
0.4220199501246883,-0.024538653366583507
0.666359102244389,-0.03938902743142142
0.925785536159601,-0.024201995012468835
1.2002493765586033,0.02596009975062341
1.4698129675810474,0.11109725685785538
1.6793890274314216,0.1961845386533666
1.779002493765586,0.3012718204488778
1.7236159600997507,0.39133416458852865
1.5132668329177057,0.4563341645885287
1.2079301745635909,0.4863092269326684
0.837643391521197,0.4663216957605985
0.48744389027431423,0.38635910224438896
0.19223192019950125,0.2514713216957606
-0.002930174563591015,0.09664588528678303
-0.09305486284289277,-0.013142144638403963
-0.12314214463840398,-0.0679800498753117
-0.11322942643391522,-0.08285536159600998
-0.07329177057356609,-0.07779301745635914
-0.03836658354114714,-0.05775561097256854
-0.05346633416458853,-0.022718204488778093
-0.05355361596009975,0.002256857855361616
-0.09364089775561096,0.022244389027431366
-0.1338154613466334,0.02224438902743142
-0.16395261845386533,0.007306733167082302
-0.1890648379052369,-0.0025685785536159744
-0.1791147132169576,-0.022406483790523735
-0.17415211970074812,-0.022206982543640896
-0.16912718204488777,0.002930174563591015
-0.1540773067331671,0.03307980049875309
-0.15413965087281795,0.02821695760598497
-0.1393266832917706,0.013329177057356645
-0.13973815461346634,-0.0066084788029925345
-0.1505486284289277,-0.011571072319202014
-0.166857855361596,-0.016583541147132175
-0.17870324189526182,-0.016571072319202018
-0.18114713216957606,-0.026571072319202027
-0.19428927680798005,-0.026608478802992552
-0.20806733167082295,-0.041857855361595975
-0.2172069825436409,-0.022394014962593578
-0.22140897755610972,-0.00829177057356606
-0.2103366583541147,0.0005112219451371414
-0.20865336658354117,-0.010885286783042403
-0.1962219451371571,-0.017306733167082367
-0.1979800498753117,-0.023640897755611012
-0.18392768079800498,-0.03470074812967583
-0.19930174563591022,-0.040461346633416495
-0.1943017456359102,-0.05082294264339149
-0.19908977556109725,-0.05088528678304238
-0.21879052369077306,-0.06571072319201998
-0.20354114713216956,-0.06047381546134667
-0.21335411471321697,-0.0503865336658354
-0.20821695760598502,-0.030436408977556118
-0.20811720698254363,-0.02054862842892763
-0.2029800498753117,-0.04567331670822944
-0.1828428927680798,-0.05578553615960091
-0.17768079800498754,-0.06087281795511218
-0.17253117206982543,-0.06596009975062339
-0.18234413965087282,-0.07107231920199497
-0.18211970074812966,-0.10114713216957602
-0.18688279301745636,-0.10623441396508729
-0.1916084788029925,-0.11122194513715708
-0.18130922693266832,-0.09612219451371568
-0.1909725685785536,-0.08104738154613461
-0.17062344139650873,-0.06102244389027428
-0.1602493765586035,-0.0659725685785536
-0.1548503740648379,-0.06593516209476308
-0.13940149625935164,-0.09082294264339152
-0.133927680798005,-0.08073566084788031
-0.14345386533665835,-0.0856483790523691
-0.15296758104738153,-0.10064837905236909
-0.1624937655860349,-0.12054862842892775
-0.14703241895261845,-0.1403740648379052
-0.15657107231920198,-0.15006234413965092
-0.15109725685785536,-0.13963840399002497
-0.14561097256857858,-0.11923940149625936
-0.1250872817955112,-0.11886533665835416
-0.11953865336658354,-0.12852867830423936
-0.0989775561097257,-0.13814214463840402
-0.08841645885286784,-0.12275561097256857
-0.09289276807980049,-0.1373690773067332
-0.0874438902743142,-0.13703241895261847
-0.07204488778054861,-0.15170822942643397
-0.07660847880299251,-0.16639650872817954
-0.0861720698254364,-0.16102244389027429
-0.11076059850374066,-0.150573566084788
-0.13032418952618455,-0.140074812967581
-0.13488778054862843,-0.12957605985037407
-0.14942643391521196,-0.1390897755610973
-0.12397755610972569,-0.1335785536159601
-0.11355361596009975,-0.1130423940149626
-0.09816708229426434,-0.11751870324189526
-0.08781795511221945,-0.12199501246882788
-0.07250623441396509,-0.136571072319202
-0.08218204488778054,-0.15614713216957601
-0.08185785536159601,-0.15077306733167076
-0.08155860349127181,-0.1354114713216958
-0.07623441396508727,-0.1
-0.07089775561097256,-0.0894763092269327
-0.05058603491271821,-0.07386533665835415
-0.03529925187032418,-0.05829177057356605
-0.020012468827930174,-0.04771820448877806
-0.009713216957605977,-0.0321197007481297
0.005548628428927671,-0.03154613466334172
0.010860349127182062,-0.010960099750623453
0.01112219451371571,-0.03046134663341654
0.0013341645885286968,-0.02495012468827934
0.0015710723192020187,-0.014413965087281821
-0.013204488778054843,0.0011720698254363837
-0.02296758104738153,0.006770573566084792
-0.03770573566084787,0.0074314214463840345
-0.04741895261845386,0.023142144638404027
-0.03213216957605984,0.028827930174563587
-0.041832917705735655,0.029526184538653355
-0.031558603491271806,0.03519950124688276
-0.03129675810473814,0.04084788029925185
-0.026084788029925178,0.031384039900249405
-0.03088528678304238,0.021945137157107275
-0.04072319201995012,0.01254364089775567
-0.04557356608478802,0.008117206982543645
-0.060374064837905236,0.003740648379052358
-0.07012468827930175,0.01936408977556109
-0.06487531172069824,0.010012468827930221
-0.05462593516209476,0.020673316708229417
-0.04441396508728179,0.01637157107231918
-0.044201995012468825,0.037069825436408965
-0.03899002493765585,0.05778054862842891
-0.04379052369077306,0.05842892768079799
-0.04856608478802993,0.05402743142144639
-0.03836658354114713,0.0345760598503741
-0.048216957605985045,0.020149625935162063
-0.058104738154613464,0.010723192019950145
-0.0580423940149626,0.02628428927680798
-0.06798004987531173,0.026832917705735704
-0.06290523690773069,0.02234413965087284
-0.07283042394014963,0.017855361596009978
-0.047730673316708244,0.008391521197007479
-0.032655860349127194,0.023877805486284265
-0.0275436408977556,0.039289276807980056
-0.007456359102244375,0.03465087281795515
0.002605985037406486,0.02495012468827934
0.007630922693266831,0.01522443890274311
0.00760598503740649,-0.009563591022443918
-0.017431421446384043,0.0006733167082293989
-0.02743142144638404,0.0009351620947631312
-0.0324064837905237,0.011197007481296761
-0.057344139650872816,0.02152119700748134
-0.062256857855361586,0.016820448877805483
-0.047144638403990025,0.027169576059850375
-0.037019950124688276,0.03758104738154616
-0.011820448877805478,0.03796758104738157
-0.016558603491271834,0.043329177057356616
-0.0063341645885286735,0.03367830423940149
-0.0011097256857855314,0.013952618453865362
-0.0008229426433915277,-0.010748129675810458
-0.01051122194513715,0.00457605985037407
-0.03511221945137157,-0.00012468827930173232
-0.039688279301745635,0.015211970074812953
-0.034139650872817943,0.020598503740648366
-0.0435286783042394,0.020960099750623462
-0.027880299251870314,0.021384039900249396
-0.027256857855361596,0.016783042394014958
-0.02664588528678305,0.027119700748129694
-0.006134663341645891,0.03243142144638406
-0.005673316708229431,0.0477057356608479
-0.005286783042394022,0.03794264339152126
-0.009900249376558604,0.01816708229426439
-0.014476309226932653,0.018391521197007488
-0.024077306733167075,0.008591022443890262
-0.02364089775561097,0.023815461346633426
-0.03319201995012469,0.019039900249376573
-0.017743142144638402,0.004314214463840393
-0.027344139650872824,0.009563591022443918
-0.02700748129675811,0.014788029925187074
-0.006745635910224437,0.03500000000000003
-0.0016084788029925023,0.05026184538653372
-0.0015586034912718066,0.050461346633416504
0.008379052369077308,0.045648379052369126
0.013341645885286788,0.04081047381546138
0.013279301745635921,0.020985037406483775
0.008216957605985037,0.04119700748129679
0.02317955112219451,0.06139650872817953
0.028117206982543635,0.07163341645885285
0.0330423940149626,0.07690773067331669
0.04296758104738156,0.06714463840398999
0.06290523690773069,0.07740648379052373
0.07283042394014964,0.08263092269326683
0.09275561097256858,0.10285536159601
0.10269326683291773,0.08807980049875314
0.11753117206982544,0.08822942643391518
0.12231920199501248,0.05334164588528684
0.1471072319201995,0.038491271820448925
0.15189526184538654,0.03865336658354118
0.14669576059850373,0.023952618453865315
0.1364713216957606,0.04426433915211975
0.1462718204488778,0.03456359102244394
0.146072319201995,0.03978802992518704
0.14588528678304238,0.019950124688279336
0.15083541147132168,0.03507481296758108
0.1459226932668329,0.045249376558603505
0.13129675810473818,0.0403990024937656
0.12700748129675812,0.04554862842892765
0.10815461346633415,0.0255610972568579
0.09991271820448878,0.0055486284289277266
0.08726932668329176,-0.004413965087281757
0.06033665835411471,0.005785536159601035
0.05407730673316709,0.021246882793017507
0.02336658354114713,0.02192019950124685
0.017917705735660858,0.02284289276807977
0.007344139650872827,0.02401496259351621
0.006234413965087282,0.030336658354114754
-0.010610972568578549,0.03173316708229429
-0.04836658354114713,0.038067331670822935
-0.0470074812967581,0.019177057356608518
-0.06139650872817955,-0.00011221945137152023
-0.061334164588528674,-0.0047880299251870095
-0.06152119700748129,-0.004750623441396429
-0.04682044887780548,-0.009812967581047327
-0.04709476309226932,0.010099750623441428
-0.05231920199501247,0.00997506234413964
-0.04245635910224439,0.009887780548628489
-0.047618453865336655,0.009850374064837908
-0.06778054862842893,0.019862842892768073
-0.058079800498753116,0.02995012468827929
-0.06349127182044888,0.025037406483790547
-0.07402743142144638,0.010099750623441428
-0.0946508728179551,-0.009875311720698221
-0.10026184538653367,-0.03493765586034914
-0.1059351620947631,-0.034987531172069875
-0.10664588528678305,-0.03493765586034914
-0.057344139650872816,-0.03476309226932672
0.0019326683291770522,-0.034526184538653415
0.09627182044887782,-0.019289276807980038
0.24564837905236905,-0.01912718204488778
0.44,-0.018990024937655836
0.6593142144638403,-0.023877805486284265
0.9085910224438902,-0.003765586034912616
1.1878802992518702,0.026321695760598507
1.4271571072319202,0.09638403990024941
1.58643391521197,0.21138403990024934
1.6357356608478801,0.3414339152119701
1.525124688279302,0.45654613466334165
1.2896009975062344,0.5317082294264339
0.9841645885286783,0.5469201995012468
0.6588403990024937,0.50214463840399
0.34856608478803,0.38233167082294267
0.10334164588528678,0.2474563591022444
-0.04192019950124688,0.09255610972568579
