0,1
-0.04867830423940149,0.03246882793017458
-0.0335286783042394,0.0324563591022444
-0.03341645885286783,0.03250623441396511
-0.013291770573566081,0.04263092269326685
-0.023192019950124685,0.032768079800498756
-0.028029925187032418,0.02294264339152119
-0.017892768079800496,0.018092269326683313
-0.0028054862842892773,0.02324189526184539
-0.002743142144638405,0.04341645885286782
0.002256857855361595,0.05855361596009975
-0.002780548628428929,0.0536284289276808
0.007182044887780547,0.0436783042394015
0.0021197007481296754,0.018728179551122187
0.017007481296758106,0.03374064837905236
0.02183291770573566,0.05379052369077306
0.02655860349127182,0.06390274314214464
0.02130922693266833,0.08902743142144637
0.026084788029925185,0.08916458852867831
0.025972568578553613,0.08432668329177057
0.040910224438902736,0.08448877805486285
0.06586034912718206,0.0996134663341646
0.08077306733167083,0.10973815461346637
0.10064837905236908,0.11483790523690773
0.10546134663341647,0.10982543640897757
0.11513715710723192,0.08981296758104737
0.11978802992518703,0.07472568578553618
0.12450124688279303,0.07968827930174566
0.13431421446384043,0.07972568578553618
0.14932668329177057,0.07480049875311723
0.14968827930174564,0.04988778054862847
0.14047381546134663,0.029937655860349133
0.14687032418952617,0.03997506234413967
0.14892768079800497,0.0500124688279302
0.15168329177057358,0.06012468827930176
0.13004987531172071,0.07543640897755613
0.11385286783042393,0.06600997506234416
0.11285536159600998,0.046807980049875325
0.09678304239401497,0.03796758104738157
0.08027431421446385,0.019451371571072323
0.053129675810473814,0.031159600997506226
0.05013715710723192,0.04780548628428927
0.04627182044887781,0.0542269326683292
0.05177057356608479,0.04527431421446382
0.02680798004987531,0.06588528678304237
0.01159600997506234,0.07113466334164589
-0.003753117206982546,0.09107231920199502
-0.014102244389027435,0.06083541147132171
-0.034438902743142145,0.050586034912718236
-0.029738154613466336,0.035386533665835385
-0.04502493765586035,0.005274314214463838
-0.04532418952618454,0.010286783042394027
-0.050660847880299245,0.015386533665835395
-0.07107231920199501,0.02046134663341645
-0.07154613466334164,0.025536159600997504
-0.04708229426433916,0.015561097256857864
-0.04764339152119701,0.02051122194513716
-0.02821695760598504,0.030473815461346643
-0.03384039900249376,0.04542394014962592
-0.0494638403990025,0.04536159600997508
-0.04513715710723192,0.04026184538653366
-0.07592269326683292,0.015124688279301746
-0.07669576059850375,0.010049875311720663
-0.08753117206982543,1.2468827930156579e-05
-0.08836658354114713,0.005062344139650843
-0.11420199501246883,-0.004887780548628429
-0.10001246882793018,0.00016209476309228532
-0.06078553615960099,-0.004750623441396484
0.013478802992518704,-0.004688279301745618
0.13771820448877806,0.010361596009975077
0.30201995012468824,0.030411471321695777
0.49633416458852864,0.010411471321695759
0.7406733167082294,0.0004239401496259343
0.9950374064837905,0.010411471321695759
1.2443640897755612,0.06039900249376562
1.4588029925187032,0.16037406483790523
1.6033042394014962,0.2803740648379052
1.6229052369077306,0.41039900249376565
1.512581047381546,0.5004862842892768
1.2773067331670822,0.5755112219451372
0.9620324189526184,0.5655985037406484
0.6217955112219451,0.5156733167082295
0.31658354114713216,0.4007481296758105
0.06634663341645886,0.2557481296758105
-0.08385286783042394,0.09569825436408974
-0.15905236907730674,-0.04436408977556108
-0.17422693266832917,-0.1244139650872818
-0.16937655860349127,-0.12442643391521198
-0.12945137157107234,-0.07945137157107232
-0.09448877805486285,-0.029463840399002503
-0.08455112219451372,0.0005735660847880353
-0.08958852867830425,0.015623441396508703
-0.08460099750623441,0.030723192019950135
-0.09461346633416459,0.0107730673316708
-0.11465087281795511,0.020785536159600992
-0.13968827930174563,0.010698254364089776
-0.15970074812967583,0.0006109725685785605
-0.1697506234413965,-0.004576059850374042
-0.16978802992518702,-0.02965087281795513
-0.1697506234413965,-0.014663341645885286
-0.17470074812967581,-0.004675810473815434
-0.17970074812967582,0.0002867830423940454
-0.18482543640897756,0.005211970074812972
-0.1951995012468828,-0.014837905236907756
-0.17591022443890272,0.005124688279301737
-0.16711970074812968,0.005149625935162078
-0.15892768079800498,0.025149625935162095
-0.16138403990024938,0.015049875311720667
-0.1645511221945137,0.009738154613466304
-0.16835411471321696,-0.0157980049875312
-0.19248129675810471,-0.026670822942643405
-0.2066209476309227,-0.03783042394014961
-0.22546134663341644,-0.039276807980049885
-0.23366583541147132,-0.030947630922693245
-0.2211346633416459,-0.04264339152119699
-0.19773067331670824,-0.03911471321695763
-0.19355361596009976,-0.02523690773067333
-0.1838279301745636,-0.01596009975062343
-0.18869077306733167,-0.011296758104738153
-0.20336658354114712,-0.016384039900249364
-0.19801745635910226,-0.031334164588528696
-0.19775561097256858,-0.03635910224438903
-0.19259351620947632,-0.05142144638403989
-0.18253117206982544,-0.04650872817955114
-0.1874563591022444,-0.051695760598503754
-0.1973940149625935,-0.056932668329177066
-0.20224438902743141,-0.07210723192019951
-0.1919201995012469,-0.07225685785536158
-0.19149625935162096,-0.06728179551122195
-0.18099750623441396,-0.042269326683291794
-0.165498753117207,-0.05231920199501247
-0.15006234413965086,-0.05238154613466331
-0.12963840399002494,-0.057468827930174576
-0.129214463840399,-0.08756857855361597
-0.13876558603491274,-0.08264339152119698
-0.14826683291770573,-0.09261845386533665
-0.1527431421446384,-0.0825436408977556
-0.15713216957605985,-0.09238154613466332
-0.16148379052369077,-0.08719451371571074
-0.14582294264339152,-0.1019950124688279
-0.13012468827930174,-0.10178304239401496
-0.0994139650872818,-0.09654613466334167
-0.08870324189526185,-0.0863216957605985
-0.08300498753117208,-0.10113466334164588
-0.08736907730673317,-0.11599750623441399
-0.10679551122194514,-0.1258728179551122
-0.126284289276808,-0.13568578553615956
-0.12077306733167081,-0.12544887780548628
-0.13028678304239402,-0.12017456359102244
-0.12482543640897756,-0.1248753117206983
-0.1193142144638404,-0.1394638403990025
-0.10380299251870324,-0.1590399002493766
-0.08327930174563591,-0.14860349127182043
-0.06775561097256858,-0.1431795511221945
-0.05723192019950124,-0.13278054862842892
-0.046683291770573565,-0.13243142144638403
-0.04615960099750624,-0.1420573566084788
-0.045660847880299255,-0.15173316708229428
-0.05518703241895262,-0.16640897755610976
-0.07477556109725686,-0.14109725685785537
-0.08437655860349128,-0.15071072319201997
-0.08895261845386535,-0.15037406483790525
-0.0884788029925187,-0.1449625935162095
-0.08798004987531172,-0.1345511221945137
-0.07246882793017456,-0.1241645885286783
-0.061957605985037405,-0.11380299251870321
-0.046496259351620946,-0.12846633416458852
-0.05107231920199501,-0.1331296758104738
-0.045660847880299255,-0.1427930174563591
-0.04524937655860349,-0.13248129675810472
-0.039862842892768084,-0.1221571072319202
-0.04945137157107232,-0.09679551122194512
-0.05408977556109726,-0.08142144638403989
-0.038753117206982546,-0.07597256857855361
-0.028403990024937657,-0.07547381546134663
-0.012992518703241895,-0.06495012468827928
-0.007605985037406484,-0.04440149625935161
-0.0022069825436408976,-0.0138653366583541
-0.0018578553615960095,-0.018354114713216962
-0.0014962593516209476,-0.0078304239401496
-0.0011720698254364093,-0.002344139650872823
-0.015860349127182045,0.003154613466334194
-0.020610972568578554,0.018678304239401505
-0.02032418952618454,0.029214463840399024
-0.02502493765586035,0.014738154613466364
-0.054688279301745635,0.010324189526184552
-0.03935162094763092,0.010935162094763085
-0.019027431421446382,0.021620947630922677
-0.01869077306733167,0.03728179551122196
-0.013304239401496257,0.057905236907730695
-0.007967581047381544,0.05845386533665836
-0.012643391521197006,0.02894014962593519
-0.01738154613466334,0.024413965087281803
-0.02213216957605985,0.019912718204488783
-0.04689526184538653,0.02542394014962593
-0.03164588528678304,0.010972568578553638
-0.04638403990024938,0.0065211970074813275
-0.056072319201995006,0.012082294264339183
-0.05577306733167082,0.012680798004987559
-0.04549875311720698,0.02832917705735663
-0.02519950124688279,0.04400249376558604
-0.029925187032418955,0.05968827930174564
-0.024688279301745636,0.045299251870324214
-0.02448877805486284,0.025822942643391522
-0.029301745635910228,0.011321695760598521
-0.03910224438902743,0.021820448877805473
-0.058915211970074814,0.027281795511221937
-0.04876558603491272,0.0327431421446384
-0.04860349127182045,0.013167082294264346
-0.043441396508728185,-0.0014463840399002448
-0.033241895261845386,-0.0010598503740648496
-0.02805486284289277,0.029389027431421452
-0.03286783042394015,0.03481296758104738
-0.02265586034912718,0.035174563591022445
-0.01243142144638404,0.03543640897755611
-0.012219451371571072,0.02064837905236909
0.007992518703241898,0.015872817955112223
0.003154613466334167,0.02110972568578555
-0.0017082294264339128,0.021396508728179553
-0.02150872817955112,0.006720698254364096
-0.03130922693266833,-0.0030174563591022358
-0.02603491271820449,-0.0027431421446384024
-0.015660847880299252,0.007556109725685781
-0.015199501246882793,0.012905236907730683
-0.004688279301745632,0.038291770573566086
0.010835411471321697,0.028678304239401486
0.016384039900249378,0.034014962593516204
0.001932668329177059,0.02423940149625936
0.007468827930174564,0.019426433915211982
0.008017456359102244,0.034613466334164594
-0.0013591022443890256,0.03981296758104738
-0.0007356608478802963,0.03496259351620948
-0.010162094763092268,0.0100997506234414
-0.009576059850374066,0.005249376558603497
-0.023977556109725687,0.00041147132169576384
-0.023329177057356612,0.0105860349127182
-0.007705735660847882,0.015822942643391527
-0.0021321695760598523,0.03607231920199502
0.0034289276807980065,0.02124688279301748
0.013952618453865338,0.016408977556109733
0.01440149625935162,0.0064837905236907745
0.01475062344139651,0.021533665835411483
0.0200498753117207,0.02664588528678305
0.005349127182044888,0.011807980049875322
0.0006608478802992493,0.011982543640897764
-0.004114713216957607,-0.0027805486284289277
0.006122194513715713,0.01746882793017457
0.0013591022443890273,0.03770573566084787
0.011596009975062343,0.03291770573566083
0.01680798004987531,0.03309226932668327
0.027007481296758104,0.03326683291770573
0.05213216957605985,0.03335411471321695
0.0622568578553616,0.043403990024937666
0.06733167082294264,0.063428927680798
0.06733167082294264,0.06345386533665834
0.07733167082294265,0.05351620947630924
0.07239401496259351,0.05359102244389029
0.07744389027431421,0.038703241895261836
0.09255610972568579,0.058827930174563614
0.10766832917705736,0.06397755610972568
0.12275561097256858,0.06911471321695761
0.1528927680798005,0.07425187032418953
0.1629426433915212,0.05435162094763095
0.18798004987531172,0.0344139650872818
0.18300498753117206,0.01940149625935164
0.17804239401496258,0.024413965087281803
0.17300498753117205,0.029389027431421466
0.16298004987531173,0.009426433915211974
0.14304239401496258,0.004538653366583559
0.14326683291770573,0.004625935162094766
0.1338154613466334,0.009750623441396516
0.12476309226932669,0.019912718204488783
0.11623441396508727,0.009999999999999995
0.10335411471321695,0.005087281795511225
0.11108478802992519,0.010211970074812962
0.08442643391521197,0.010423940149625943
0.07330423940149626,0.02086034912718207
0.04251870324189526,0.016583541147132175
0.016795511221945135,0.01258104738154614
0.00579800498753117,0.008815461346633427
0.00425187032418952,-0.009725685785536148
-0.00807980049875312,-0.0032418952618453734
-0.011284289276807982,-0.00189526184538652
-0.015274314214463833,0.01918952618453866
-0.0348503740648379,0.024900249376558603
-0.024725685785536168,0.010187032418952621
-0.024775561097256864,0.005137157107231921
-0.03487531172069826,-0.0050872817955112115
-0.045,0.014625935162094775
-0.06508728179551122,0.014426433915211992
-0.060149625935162085,0.014314214463840416
-0.07022443890274314,-0.0007356608478802928
-0.0802992518703242,-0.025760598503740642
-0.06541147132169577,-0.015723192019950108
-0.05551122194513716,-0.005735660847880283
-0.055698254364089775,0.004264339152119698
-0.06592269326683292,-0.0007855361596009885
-0.06624688279301745,0.00916458852867831
-0.061620947630922684,-0.025872817955112218
-0.08204488778054864,-0.03599750623441396
-0.07253117206982544,-0.036072319201994996
-0.04312967581047382,-0.016172069825436397
0.0012094763092269298,-0.011284289276807982
0.1055361596009975,-0.026346633416458848
0.24981296758104737,-0.04139650872817956
0.44918952618453867,-0.056321695760598506
0.688640897755611,-0.051209476309226926
0.9481670822942644,-0.011009975062344149
1.2277057356608478,0.04913965087281795
1.4622568578553614,0.1442518703241895
1.6168204488778055,0.26430174563591025
1.6413092269326683,0.3993391521197007
1.525773067331671,0.5243391521197007
1.2801995012468828,0.6043266832917705
0.984638403990025,0.6043266832917705
0.6341770573566085,0.5192892768079801
0.3238279301745636,0.37926433915211966
0.09356608478802991,0.22433915211970076
-0.07663341645885287,0.07445137157107232
-0.1517705735660848,-0.04041147132169576
-0.16188279301745634,-0.1153366583541147
-0.13193266832917705,-0.1153366583541147
-0.08695760598503742,-0.0903491271820449
-0.05693266832917705,-0.05539900249376559
-0.051882793017456366,-0.0053865336658354135
-0.05683291770573566,0.014613466334164604
-0.09180798004987534,0.014613466334164604
-0.13682044887780548,-0.00544887780548628
-0.17179551122194514,-0.04551122194513715
-0.1917705735660848,-0.050561097256857854
-0.1917082294264339,-0.03051122194513714
-0.1766209476309227,-0.020461346633416463
-0.1714588528678304,-0.02541147132169576
-0.1562219451371571,-0.020386533665835413
-0.1609850374064838,-0.010448877805486284
-0.1657356608478803,-0.02054862842892767
-0.16052369077306733,-0.015610972568578546
-0.17533665835411472,-0.020660847880299246
-0.18519950124688278,-0.030748129675810462
-0.1800623441396509,-0.04082294264339151
-0.1898503740648379,-0.05094763092269326
-0.1945511221945137,-0.05100997506234413
-0.20415211970074815,-0.04604738154613466
-0.20374064837905237,-0.025997506234413964
-0.19339152119700748,-0.015985037406483785
-0.1832294264339152,-0.026059850374064844
-0.15831670822942645,-0.026184538653366576
-0.1637655860349127,-0.02634663341645886
-0.15962593516209478,-0.02643391521197007
-0.15598503740648378,-0.026446384039900253
-0.17295511221945137,-0.04150872817955112
-0.1805361596009975,-0.056695760598503744
-0.19365336658354115,-0.07218204488778054
-0.19721945137157107,-0.07290523690773068
-0.20599750623441396,-0.058890274314214466
-0.20472568578553615,-0.04013715710723191
-0.2080798004987531,-0.05659600997506234
-0.21089775561097257,-0.05825436408977555
-0.19300498753117207,-0.06997506234413964
-0.18938902743142144,-0.06660847880299252
-0.18514962593516207,-0.07293017456359102
-0.18541147132169575,-0.05392768079800499
-0.1853366583541147,-0.07446384039900247
-0.18502493765586034,-0.08465087281795511
-0.18963840399002493,-0.09462593516209475
-0.18422693266832918,-0.08455112219451372
-0.17381546134663342,-0.0844638403990025
-0.1733915211970075,-0.06450124688279302
-0.17298004987531174,-0.06961346633416458
-0.18255610972568578,-0.06982543640897755
-0.17209476309226934,-0.08506234413965086
-0.17158354114713217,-0.09529925187032419
-0.1610224438902743,-0.09549875311720697
-0.15042394014962593,-0.09062344139650871
-0.15476309226932666,-0.10069825436408977
-0.15407730673316708,-0.11573566084788028
-0.1533790523690773,-0.13074812967581045
-0.142643391521197,-0.14571072319201994
-0.13688279301745637,-0.14059850374064836
-0.13609725685785537,-0.14051122194513715
-0.1252992518703242,-0.12537406483790522
-0.12450124688279302,-0.1301995012468828
-0.10876558603491274,-0.13999999999999999
-0.11805486284289277,-0.1548004987531172
-0.11739401496259351,-0.14462593516209477
-0.11173316708229425,-0.14455112219451371
-0.11115960099750623,-0.15447630922693267
-0.1055486284289277,-0.17437655860349127
-0.10987531172069825,-0.18917705735660845
-0.12416458852867832,-0.17890274314214463
-0.10344139650872819,-0.16860349127182045
-0.1027057356608479,-0.1433291770573566
-0.09198254364089775,-0.13815461346633415
-0.09627182044887782,-0.1429800498753117
-0.09049875311720698,-0.15278054862842894
-0.07981296758104738,-0.16756857855361595
-0.08412718204488778,-0.147356608478803
-0.09349127182044889,-0.1471945137157107
-0.09291770573566085,-0.1520573566084788
-0.087356608478803,-0.16693266832917705
-0.0967705735660848,-0.1817206982543641
-0.09615960099750626,-0.1864214463840399
-0.0955486284289277,-0.171072319201995
-0.06488778054862843,-0.13574812967581046
-0.059189526184538654,-0.12551122194513714
-0.043491271820448874,-0.11533665835411472
-0.04780548628428928,-0.11009975062344138
-0.037169576059850384,-0.11982543640897754
-0.031558603491271826,-0.10955112219451371
-0.015960099750623444,-0.08932668329177057
-0.030399002493765592,-0.06917705735660848
-0.01981296758104739,-0.0790149625935162
-0.024239401496259354,-0.07377805486284289
-0.02370324189526185,-0.05845386533665835
-0.03307980049875313,-0.043117206982543635
-0.012456359102244394,-0.007768079800498748
-0.006857855361596013,0.007556109725685781
0.01879052369077306,0.012855361596009973
0.024438902743142144,0.01816708229426435
0.005024937655860345,0.003478802992518709
0.005548628428927678,0.023765586034912717
-0.008940149625935166,0.019014962593516205
-0.02342892768079801,0.024251870324189545
-0.042867830423940156,0.014501246882793015
-0.042306733167082305,0.0047630922693266825
-0.04170822942643392,0.0001496259351620871
-0.0410847880299252,0.0005610972568578509
-0.03547381546134663,0.031034912718204494
-0.024912718204488787,0.05148379052369079
-0.01937655860349128,0.05189526184538654
-0.03382793017456359,0.04231920199501246
-0.033329177057356614,0.037730673316708235
-0.022817955112219457,0.023129675810473815
-0.02236907730673318,0.028491271820448888
-0.026945137157107238,0.033815461346633435
-0.046571072319202,0.03911471321695763
-0.06117206982543641,0.029451371571072332
-0.060723192019950134,0.014875311720698267
-0.060261845386533675,0.025399002493765588
-0.06473815461346634,0.020947630922693264
-0.05417705735660848,0.0364713216957606
-0.04361596009975062,0.056932668329177066
-0.028079800498753124,0.04739401496259352
-0.03256857855361597,0.03285536159600999
-0.032119700748129684,0.018254364089775557
-0.021670822942643386,0.013653366583541146
-0.04125935162094764,0.014014962593516214
-0.055835411471321705,0.03937655860349129
-0.06543640897755612,0.019788029925187037
-0.07498753117206983,0.02521197007481296
-0.0645137157107232,0.010673316708229422
-0.049014962593516204,0.01617206982543641
-0.04841645885286783,0.0366708229426434
-0.03278054862842893,0.052144638403990015
-0.022132169576059846,0.05759351620947631
-0.02150872817955113,0.04802992518703243
-0.02091022443890274,0.03341645885286784
-0.015374064837905238,0.023802992518703256
-0.019850374064837903,0.029127182044887776
-0.024339152119700752,0.034476309226932664
-0.028790523690773062,0.03980049875311721
-0.04324189526184538,0.035099750623441395
-0.03760598503740649,0.025374064837905233
-0.031920199501246874,0.03562344139650872
-0.036172069825436415,0.05581047381546134
-0.0403865336658354,0.05097256857855363
-0.03463840399002495,0.05608478802992517
-0.023890274314214463,0.03615960099750623
-0.018129675810473825,0.0011720698254364115
-0.007443890274314219,0.011159600997506236
-0.011783042394014953,0.011134663341645895
-0.006159600997506232,0.0161221945137157
-0.020573566084788025,0.02610972568578554
-0.035024937655860344,0.016047381546134665
-0.02447630922693267,0.010985037406483808
-0.01889027431421446,0.025985037406483807
-0.018366583541147133,0.0360349127182045
-0.007855361596009983,0.041122194513715724
-0.012418952618453882,0.06117206982543641
-0.012019950124688289,0.056172069825436405
-0.02664588528678305,0.04117206982543642
-0.026296758104738152,0.021084788029925194
-0.015997506234413955,0.02602244389027432
-0.005735660847880297,0.015972568578553614
-0.020486284289276818,0.02098503740648379
-0.050286783042394034,0.030972568578553614
-0.05508728179551123,0.025972568578553637
-0.0498628428927681,0.015972568578553628
-0.034638403990024935,0.04096009975062345
-0.009438902743142158,0.05102244389027433
0.01569825436408978,0.06604738154613467
0.03084788029925188,0.07099750623441398
0.025985037406483794,0.0758852867830424
0.04608478802992519,0.06569825436408978
0.031209476309226936,0.06554862842892768
0.04634663341645885,0.07047381546134665
0.03649625935162095,0.08046134663341649
0.05662094763092268,0.0704488778054863
0.0667581047381546,0.06046134663341646
0.08689526184538654,0.07037406483790526
0.11198254364089776,0.0652992518703242
0.1521571072319202,0.08523690773067331
0.17233167082294265,0.09522443890274315
0.17261845386533664,0.08021197007481298
0.183142144638404,0.05513715710723191
0.16403990024937656,0.024987531172069838
0.1454364089775561,0.009812967581047383
0.1274563591022444,-0.005336658354114704
0.12513715710723192,0.004650872817955121
0.1235286783042394,0.014788029925187032
0.1224937655860349,0.01512468827930176
0.136857855361596,0.01077306733167084
0.14128428927680797,0.016783042394014958
0.14541147132169577,0.02312967581047383
0.13894014962593515,0.02967581047381547
0.11672069825436408,0.036172069825436415
0.09860349127182041,0.03740648379052369
0.06975062344139651,0.013279301745635907
0.055286783042394025,0.008790523690773072
0.02541147132169576,0.003927680798004998
0.00038653366583540905,0.023815461346633413
-0.019650872817955106,0.03854114713216958
-0.029600997506234433,0.03825436408977556
-0.04445137157107232,0.03800498753117207
-0.04421446384039901,0.017880299251870332
-0.04894014962593518,0.017867830423940162
-0.048728179551122186,0.012942643391521208
-0.038541147132169606,0.022992518703241913
-0.04351620947630924,0.022967581047381544
-0.04360349127182045,0.022793017456359102
-0.048778054862842896,0.00759351620947632
-0.04394014962593515,-0.0025062344139650805
-0.05908977556109726,-0.0025311720698254353
-0.06925187032418956,0.0024189526184538734
-0.06935162094763092,0.007381546134663339
-0.0844139650872818,0.027369077306733172
-0.07942643391521195,0.002319201995012468
-0.07438902743142142,0.007306733167082288
-0.05938902743142144,0.012244389027431427
-0.06445137157107234,0.01209476309226934
-0.07961346633416458,0.01684538653366585
-0.0998503740648379,-0.0084788029925187
-0.11016209476309227,-0.013802992518703233
-0.10554862842892765,-0.039077306733167075
-0.07597256857855361,-0.039289276807980056
-0.006408977556109724,-0.019426433915211955
0.0731920199501247,-0.00957605985037406
0.1978927680798005,-0.004700748129675816
0.36759351620947633,-0.024788029925187027
0.5572817955112219,-0.04985037406483789
0.8069451371571073,-0.03492518703241894
1.056508728179551,-6.234413965086616e-05
1.2860349127182045,0.09975062344139651
1.4855486284289277,0.2045137157107232
1.5850374064837904,0.3142892768079801
1.574501246882793,0.42913965087281797
1.4340024937655862,0.5140274314214464
1.2185286783042393,0.5839027431421446
0.9330922693266833,0.5987905236907731
0.6327306733167082,0.5486533665835411
0.36244389027431423,0.4485536159600998
0.15219451371571072,0.3084912718204489
0.01199501246882792,0.12345386533665835
-0.08314214463840397,-0.011683291770573576
-0.11321695760598502,-0.08687032418952619
-0.10826683291770575,-0.09711970074812966
-0.09829177057356608,-0.09231920199501248
-0.08824189526184538,-0.05746882793017456
-0.08816708229426433,-0.03259351620947631
-0.08805486284289277,-0.0026807980049875224
-0.10290523690773068,0.017231920199501247
-0.1176932668329177,0.02716957605985039
-0.14746882793017457,0.03708229426433915
-0.16718204488778055,0.0220074812967581
-0.17687032418952617,0.00693266832917705
-0.17654613466334163,-0.008216957605985023
-0.16623441396508726,-0.00846633416458853
-0.17591022443890272,-0.008765586034912717
-0.18059850374064837,-0.009052369077306735
-0.19027431421446384,-0.004339152119700748
-0.19495012468827932,-0.014638403990024931
-0.1946134663341646,-0.02488778054862842
-0.18422693266832918,-0.030137157107231916
-0.17881546134663343,-0.015399002493765593
-0.15839152119700747,0.004389027431421444
-0.16296758104738152,0.02917705735660847
-0.1574937655860349,0.02400249376558604
-0.15703241895261844,0.013765586034912722
-0.16158354114713216,-0.016521197007481295
-0.17619700748129674,-0.03185785536159601
-0.17599750623441396,-0.02216957605985037
-0.17598503740648377,-0.012418952618453868
-0.17633416458852869,-0.002605985037406486
-0.17713216957605984,-0.007755610972568577
-0.20847880299251872,-0.022880299251870323
-0.2004488778054863,-0.023054862842892765
-0.1880798004987531,-0.038379052369077314
-0.18630922693266833,-0.023940149625935145
-0.17495012468827928,-0.009850374064837894
-0.17375311720698253,-0.006134663341645891
-0.17735660847880297,-0.027805486284289277
-0.17051122194513718,-0.049725685785536156
-0.17801745635910227,-0.05675810473815461
-0.19476309226932667,-0.06361596009975062
-0.21071072319201994,-0.05012468827930174
-0.21594763092269326,-0.041209476309226944
-0.2206857855361596,-0.056870324189526186
-0.22011221945137158,-0.06708229426433915
-0.1994139650872818,-0.06204488778054863
-0.19370324189526184,-0.06188279301745636
-0.17302992518703245,-0.04672069825436409
-0.17249376558603494,-0.05164588528678304
-0.16200748129675813,-0.05173316708229427
-0.1515211970074813,-0.08189526184538654
-0.17600997506234417,-0.08701995012468826
-0.1654488778054863,-0.09209476309226933
-0.1547506234413965,-0.09703241895261847
-0.15395261845386535,-0.09192019950124687
-0.15805486284289277,-0.09179551122194514
-0.13711970074812968,-0.09165835411471322
-0.1312094763092269,-0.09649625935162094
-0.13532418952618452,-0.09128428927680797
-0.129501246882793,-0.08604738154613466
-0.13872817955112218,-0.08087281795511223
-0.13801745635910223,-0.08073566084788031
-0.14233167082294265,-0.10567331670822942
-0.13664588528678304,-0.12557356608478804
-0.12596009975062344,-0.1454364089775561
-0.12022443890274312,-0.14523690773067333
-0.10448877805486284,-0.135
-0.10871571072319203,-0.12478802992518703
-0.09796758104738154,-0.11460099750623441
-0.1022069825436409,-0.1144014962593516
-0.08640897755610971,-0.12420199501246883
-0.07562344139650873,-0.1140149625935162
-0.06985037406483792,-0.1088279301745636
-0.07915211970074815,-0.11364089775561097
-0.08352867830423939,-0.14349127182044888
-0.08293017456359102,-0.16336658354114714
-0.10233167082294264,-0.18817955112219453
-0.10674563591022446,-0.1829925187032419
-0.1061346633416459,-0.16775561097256858
-0.09546134663341646,-0.1524937655860349
-0.07972568578553615,-0.14719451371571074
-0.06896508728179554,-0.1369077306733167
-0.07321695760598507,-0.13659600997506235
-0.062481296758104765,-0.13632169576059852
-0.05682044887780549,-0.11608478802992518
-0.05122194513715711,-0.11582294264339152
-0.06066084788029924,-0.12562344139650874
-0.0651496259351621,-0.14042394014962595
-0.0646134663341646,-0.1552369077306733
-0.07905236907730673,-0.15501246882793016
-0.08351620947630925,-0.1347506234413965
-0.08294264339152121,-0.10445137157107232
-0.07231920199501246,-0.09907730673316707
-0.05168329177057357,-0.08870324189526184
-0.031022443890274337,-0.08834164588528678
-0.020336658354114717,-0.07800498753117206
0.00033665835411469947,-0.06769326683291771
0.0009850374064837852,-0.05236907730673317
0.01659600997506236,-0.037044887780548624
0.012144638403990049,-0.021720698254364082
0.0026558603491271815,-0.03137157107231919
0.003117206982543641,-0.025972568578553595
-0.016433915211970074,-0.03051122194513714
-0.005997506234413946,-0.0050872817955112115
-0.010536159600997491,0.015386533665835408
-0.02501246882793018,0.02082294264339153
-0.014488778054862844,0.02620947630922693
-0.003965087281795482,0.03160847880299253
0.0015461346633416362,0.03203241895261846
0.007069825436408994,0.04241895261845388
0.012543640897755615,0.0528428927680798
-0.0020573566084788053,0.04830423940149628
-0.01165835411471322,0.028790523690773062
-0.016296758104738157,0.009314214463840412
-0.025947630922693282,0.0048503740648379035
-0.030548628428927666,0.015361596009975054
-0.045124688279301745,0.030910224438902734
-0.04965087281795513,0.02648379052369078
-0.04421446384039901,0.04204488778054864
-0.03880299251870323,0.03754364089775561
-0.02835411471321697,0.03300498753117208
-0.027917705735660825,0.028428927680798008
-0.027556109725685785,0.04384039900249377
-0.0172568578553616,0.0242643391521197
-0.026995012468827934,0.019725685785536157
-0.0367082294264339,0.015162094763092271
-0.036396508728179566,0.005635910224438906
-0.031034912718204466,0.021122194513715706
-0.030573566084788006,0.05168329177057357
-0.035074812967581026,0.062269326683291756
-0.02958852867830425,0.06790523690773066
-0.024077306733167075,0.06351620947630922
-0.01866583541147135,0.04403990024937657
-0.023229426433915207,0.029463840399002503
-0.022830423940149613,0.02486284289276809
-0.027406483790523684,0.02519950124688279
-0.02201995012468827,0.03053615960099751
-0.021571072319201967,0.015885286783042407
-0.04605985037406485,0.011234413965087287
-0.015461346633416473,0.011608478802992511
-0.014788029925187046,0.016970074812967584
-0.004102244389027454,0.027256857855361596
-0.008379052369077322,0.04248129675810475
-0.0077057356608478955,0.03761845386533666
-0.01708229426433916,0.032705735660847876
-0.021521197007481285,0.017705735660847877
-0.02596009975062344,0.017705735660847877
-0.020448877805486265,0.032693266832917706
-0.024925187032418944,0.02770573566084787
-0.024376558603491277,0.01773067331670823
-0.018790523690773053,0.007805486284289287
-0.02316708229426434,0.007880299251870324
-0.017531172069825435,0.02796758104738155
-0.006932668329177077,0.0480423940149626
-0.021359102244389028,0.053129675810473814
-0.005885286783042426,0.04321695760598504
-0.01048628428927681,0.04324189526184538
-0.025199501246882805,0.02822942643391521
-0.030000000000000027,0.01820448877805486
-0.03485037406483793,0.02322942643391522
-0.029725685785536193,0.03327930174563591
-0.03462593516209478,0.018354114713216962
-0.04453865336658355,0.023453865336658358
-0.024401496259351618,0.008516209476309239
-0.04925187032418954,0.01855361596009976
-0.029039900249376582,0.02862842892768079
-0.01884039900249379,0.048728179551122186
-0.00362842892768081,0.053827930174563596
-0.008428927680798004,0.03384039900249376
0.0017581047381546033,0.013815461346633418
0.011882793017456345,0.018765586034912712
0.0019326683291770452,0.01871571072319203
-0.018042394014962604,0.018703241895261846
-0.043054862842892755,0.0237780548628429
-0.05804239401496261,0.013815461346633404
-0.05802992518703243,0.028852867830423942
-0.04296758104738155,0.05391521197007482
0.002132169576059828,0.08395261845386534
0.022231920199501237,0.10403990024937655
0.04733167082294265,0.10407730673316706
0.06738154613466332,0.08908977556109726
0.08243142144638403,0.08402743142144638
0.0974937655860349,0.06390274314214464
0.09271820448877806,0.058802992518703245
0.07809226932668328,0.048753117206982555
0.0737655860349127,0.033765586034912726
0.08486284289276809,0.023740648379052376
0.10147132169576056,0.028665835411471316
0.12874064837905236,0.0386284289276808
0.14164588528678304,0.043653366583541145
0.14013715710723193,0.04894014962593515
0.1541147132169576,0.04448877805486284
0.16336658354114714,0.030311720698254357
0.15756857855361597,0.03640897755610974
0.15144638403990024,0.027680798004987545
0.1397506234413965,0.0241147132169576
0.13233167082294264,0.025623441396508725
0.10915211970074815,0.017032418952618464
0.1002992518703242,-0.001807980049875313
0.08089775561097257,0.00902743142144638
0.056147132169576036,0.02938902743142144
0.031209476309226936,0.0394139650872818
0.016221945137157134,0.05421446384039899
0.011284289276807968,0.04399002493765586
-0.008615960099750603,0.0237780548628429
-0.018516209476309248,0.033665835411471334
-0.033466334164588524,0.01359102244389028
-0.05844139650872818,0.01357855361596011
-0.07346633416458856,-0.011408977556109721
-0.07850374064837903,-0.0113216957605985
-0.0936284289276808,-0.016197007481296752
-0.09377805486284288,-0.011072319201995008
-0.10396508728179549,0.009002493765586025
-0.09917705735660848,0.03401496259351622
-0.10436408977556111,0.03899002493765587
-0.08961346633416456,0.018965087281795523
-0.08992518703241895,0.023902743142144633
-0.09027431421446383,0.028815461346633417
-0.08566084788029926,0.023678304239401496
-0.10608478802992519,0.018466334164588538
-0.1015211970074813,0.013241895261845396
-0.1169576059850374,-0.02193266832917705
-0.11730673316708229,-0.012019950124688282
-0.13269326683291774,-0.026982543640897756
-0.12810473815461348,-0.011907730673316706
-0.11854114713216957,-0.011882793017456351
-0.09905236907730672,-0.006982543640897759
-0.03963840399002491,-0.007107231920199492
0.05472568578553619,-0.022182044887780555
0.19902743142144638,-0.02223192019950125
0.3883291770573566,-0.03226932668329177
0.6026309226932669,-0.047319201995012466
0.8568703241895262,-0.03738154613466335
1.1311970074812967,0.007568578553615965
1.3655735660847879,0.12253117206982544
1.5199875311720699,0.262568578553616
1.5844887780548627,0.4076932668329177
1.509064837905237,0.5478179551122194
1.3186907730673316,0.63285536159601
1.058428927680798,0.6728304239401496
0.7532169576059851,0.6178054862842893
0.46299251870324193,0.5127680798004988
0.18273067331670823,0.35271820448877805
-0.00255610972568579,0.19263092269326684
-0.13285536159600997,0.017493765586034923
-0.173142144638404,-0.09266832917705736
-0.1733167082294264,-0.13278054862842892
-0.14341645885286786,-0.11280548628428927
-0.10341645885286782,-0.05775561097256857
-0.07335411471321696,-0.0027057356608478633
-0.07825436408977557,0.03230673316708231
-0.08814214463840403,0.032231920199501246
-0.11811720698254363,0.02718204488778056
-0.15309226932668324,0.007119700748129676
-0.18806733167082296,0.0020324189526184644
-0.20302992518703245,0.0019451371571072434
-0.21300498753117209,0.0017955112219451425
-0.2228802992518703,-0.023341645885286796
-0.21273067331670825,-0.023478802992518713
-0.20259351620947633,-0.03856608478802993
-0.19741895261845388,-0.008628428927680787
-0.19224438902743143,-0.0036658354114713076
-0.1820573566084788,0.016284289276807987
-0.181857855361596,-0.0038154613466334086
-0.18163341645885286,-0.018927680798004984
-0.19640897755610975,-0.014052369077306733
-0.18623441396508728,-0.009164588528678297
-0.19612219451371574,0.0006733167082294267
-0.20122194513715713,0.0005236907730673257
-0.2065835411471322,-0.0096134663341646
-0.21233167082294266,-0.02471321695760599
-0.2085411471321696,-0.014750623441396514
-0.2103615960099751,-0.009800498753117198
-0.20284289276807982,-0.004962593516209479
-0.19099750623441397,-0.0003990024937655795
-0.18471321695760598,-0.006221945137157098
-0.18871571072319202,-0.022493765586034914
-0.19271820448877802,-0.0291645885286783
-0.19634663341645886,-0.03608478802992519
-0.2143640897755611,-0.028204488778054856
-0.2265211970074813,-0.05523690773067331
-0.24276807980049878,-0.06701995012468827
-0.23825436408977557,-0.09330423940149625
-0.2231795511221945,-0.08410224438902743
-0.21275561097256857,-0.06943890274314214
-0.20216957605985036,-0.05442643391521197
-0.19659600997506232,-0.04928927680798005
-0.18613466334164586,-0.04416458852867831
-0.1857730673316708,-0.054139650872817954
-0.18054862842892766,-0.06425187032418953
-0.17037406483790526,-0.059501246882793006
-0.17023690773067335,-0.0597506234413965
-0.17999999999999997,-0.08492518703241896
-0.1846508728179551,-0.09509975062344138
-0.19420199501246882,-0.10517456359102244
-0.19864089775561095,-0.10521197007481298
-0.19801745635910223,-0.0901496259351621
-0.19234413965087283,-0.09009975062344139
-0.1816583541147132,-0.08506234413965087
-0.17096009975062348,-0.09001246882793018
-0.1502992518703242,-0.1099002493765586
-0.12467581047381543,-0.11981296758104737
-0.1241022443890274,-0.12475062344139651
-0.12364089775561093,-0.11470074812967582
-0.12815461346633414,-0.12958852867830423
-0.14266832917705735,-0.13442643391521197
-0.13721945137157104,-0.14923940149625936
-0.12668329177057353,-0.14399002493765586
-0.12610972568578552,-0.15370324189526186
-0.12553615960099748,-0.133428927680798
-0.11992518703241892,-0.13815461346633418
-0.10430174563591021,-0.16284289276807978
-0.09370324189526186,-0.17753117206982544
-0.07316708229426433,-0.17728179551122195
-0.06763092269326682,-0.17206982543640897
-0.07713216957605984,-0.15689526184538655
-0.09165835411471324,-0.1517206982543641
-0.11118453865336655,-0.1664339152119701
-0.11074812967581044,-0.17615960099750622
-0.10029925187032421,-0.1708229426433915
-0.10482543640897754,-0.15052369077306735
-0.08932668329177057,-0.14522443890274314
-0.07382793017456357,-0.13492518703241893
-0.07839152119700749,-0.12956359102244389
-0.06796758104738154,-0.1492643391521197
-0.0725935162094763,-0.14899002493765587
-0.06725685785536159,-0.13875311720698255
-0.061920199501246886,-0.13355361596009974
-0.07653366583541149,-0.14827930174563592
-0.07614713216957608,-0.1528927680798005
-0.07578553615960099,-0.16744389027431422
-0.06542394014962594,-0.16699501246882792
-0.04004987531172069,-0.13155860349127182
-0.03467581047381549,-0.08615960099750623
-0.02930174563591023,-0.06577306733167083
-0.01892768079800497,-0.05036159600997505
0.006384039900249383,-0.05996259351620947
0.0016957605985037372,-0.054551122194513704
0.0020074812967580957,-0.059201995012468825
0.007206982543640883,-0.048865336658354123
-0.002531172069825449,-0.03351620947630924
-0.007281795511221961,-0.01814214463840399
-0.012007481296758132,-0.0176932668329177
-0.011733167082294271,-0.012219451371571072
-0.011421446384039913,-0.006745635910224437
-0.006122194513715706,0.013728179551122197
-0.010835411471321721,0.024214463840399006
0.004389027431421444,0.03971321695760599
-0.005411471321695782,0.030211970074812966
-0.005261845386533681,0.02066084788029926
-0.02014962593516209,0.006072319201995011
-0.035049875311720685,0.011471321695760595
-0.049987531172069805,0.011907730673316713
-0.05992518703241895,0.022418952618453863
-0.06982543640897756,0.017980049875311724
-0.05971321695760601,-0.006446384039900249
-0.04452618453865337,0.014139650872817974
-0.029339152119700757,0.024763092269326686
-0.01917705735660849,0.050324189526184546
-0.01902743142144639,0.045822942643391526
-0.018915211970074786,0.03630922693266833
-0.023802992518703242,0.026783042394014966
-0.018740648379052344,-0.0027680798004987572
-0.043715710723192,0.01270573566084788
-0.048678304239401504,0.018142144638403995
-0.0637281795511222,0.013578553615960103
-0.06375311720698257,0.004039900249376567
-0.06875311720698257,0.004538653366583545
-0.0687281795511222,0.02508728179551123
-0.058728179551122195,0.030586034912718205
-0.048703241895261845,0.04098503740648379
-0.02866583541147133,0.046309226932668326
-0.01866583541147132,0.03658354114713217
-0.018728179551122187,0.02179551122194514
-0.023877805486284293,0.01203241895261846
-0.01912718204488778,0.017231920199501247
-0.024389027431421434,0.012431421446384053
-0.044613466334164575,0.022643391521197015
-0.05968827930174564,0.007917705735660856
-0.07970074812967587,0.0032543640897755577
-0.06960099750623444,0.00861596009975063
-0.06440149625935163,0.013927680798005
-0.039127182044887826,0.039201995012468835
-0.03382793017456362,0.04937655860349127
-0.013516209476309243,0.03952618453865337
-0.00825436408977559,0.019700748129675816
-0.00805486284289278,0.014800498753117217
-0.022855361596009954,0.009850374064837908
-0.03764339152119703,0.00988778054862844
-0.04235660847880299,0.019987531172069826
-0.04705735660847879,0.015099750623441412
-0.04175810473815458,0.015286783042394024
-0.05140897755610971,0.015498753117206998
-0.041009975062344106,0.020660847880299253
-0.05058603491271818,0.035798004987531176
-0.035149625935162104,0.0408852867830424
-0.029750623441396506,0.025935162094763098
-0.024389027431421434,0.016022443890274324
-0.02413965087281794,0.01605985037406485
-0.01396508728179549,0.006084788029925188
-0.013852867830423915,0.01110972568578554
-0.03381546134663341,0.011172069825436413
-0.04382793017456357,0.02630922693266833
-0.058877805486284296,0.02649625935162095
-0.06392768079800498,0.026683291770573568
-0.05401496259351621,0.021820448877805487
-0.034127182044887794,0.03195760598503741
-0.024276807980049886,0.037032418952618454
-0.019501246882793005,0.04708229426433916
-0.029738154613466322,0.02710723192019951
-0.02506234413965089,0.022107231920199505
-0.035448877805486306,0.007082294264339151
-0.030847880299251867,0.012082294264339162
-0.02122194513715711,0.022119700748129675
-0.02158354114713215,0.03724438902743142
-0.006945137157107234,0.03743142144638403
0.012743142144638397,0.05260598503740649
0.017431421446384043,0.0677930174563591
0.02715710723192019,0.07794264339152121
0.041920199501246896,0.09805486284289276
0.05663341645885284,0.09811720698254364
0.06134663341645885,0.0931795511221945
0.046047381546134664,0.07815461346633418
0.05569825436408979,0.053142144638403985
0.07028678304239405,0.033067331670822944
0.07987531172069827,0.043092269326683294
0.10448877805486283,0.06312967581047382
0.11916458852867828,0.05822942643391522
0.13897755610972568,0.04831670822942644
0.16405236907730675,0.04835411471321696
0.16451371571072318,0.05334164588528678
0.1654364089775561,0.05326683291770573
0.1619201995012469,0.043167082294264345
0.13900249376558604,0.03810473815461347
0.13674563591022446,0.01816708229426435
0.1300997506234414,0.0034788029925187022
0.11382793017456361,-0.015872817955112216
0.09276807980049877,-0.009862842892768078
0.07650872817955112,0.006533665835411477
0.04477556109725686,0.013204488778054857
0.022369077306733154,0.009975062344139654
0.014226932668329195,0.011596009975062348
0.015374064837905238,0.03293017456359102
0.020748129675810467,0.058877805486284296
0.020673316708229417,0.06440149625935163
0.015261845386533662,0.06443890274314215
-0.010249376558603501,0.049164588528678305
-0.035760598503740665,0.013765586034912715
-0.0561970074812968,-0.001633416458852864
-0.08160847880299252,-0.006857855361595999
-0.08699501246882793,0.008104738154613475
-0.08243142144638405,0.01317955112219451
-0.0728927680798005,-0.0017456359102244398
-0.06347880299251873,-0.0017581047381546103
-0.05415211970074815,0.003179551122194507
-0.05996259351620953,0.008142144638403993
-0.060872817955112235,0.033104738154613456
-0.08185785536159598,0.028092269326683295
-0.08794264339152119,0.02300498753117207
-0.08901496259351621,0.007917705735660849
-0.1000374064837905,0.002817955112219453
-0.11102244389027432,-0.002169576059850374
-0.1169576059850374,0.002880299251870319
-0.12786783042394018,-0.00201995012468828
-0.13376558603491273,-0.016970074812967577
-0.12463840399002496,-0.031970074812967576
-0.10056109725685786,-0.036932668329177055
-0.061408977556109745,-0.006857855361595999
0.017755610972568586,-0.0017456359102244329
0.13195760598503742,0.003354114713216963
0.2812219451371571,-0.011620947630922689
0.4805112219451372,-0.04667082294264339
0.7348379052369077,-0.03170822942643391
1.004201995012469,0.018279301745635912
1.2636159600997505,0.12330423940149626
1.4831172069825436,0.24837905236907729
1.5976932668329176,0.40846633416458855
1.577281795511222,0.5435411471321695
1.421932668329177,0.6485910224438902
1.1766084788029925,0.7436783042394015
0.8412344139650874,0.7238029925187033
0.4908354114713217,0.6288154613466335
0.19541147132169576,0.43876558603491267
-0.035,0.24364089775561096
-0.1653366583541147,0.05852867830423941
-0.2256359102244389,-0.06148379052369077
-0.21592269326683292,-0.1114713216957606
-0.18119700748129677,-0.11645885286783042
-0.14642144638403992,-0.09139650872817956
-0.09163341645885284,-0.051396508728179545
-0.08684538653366589,0.0035785536159601006
-0.07703241895261848,0.023578553615960104
-0.11724438902743145,0.023591022443890275
-0.1524937655860349,0.02856608478802994
-0.17276807980049877,-0.001483790523690763
-0.19807980049875315,-0.01659600997506234
-0.21341645885286786,-0.04668329177057356
-0.21381546134663346,-0.03175810473815461
-0.21932668329177055,-0.01178304239401496
-0.21004987531172073,-0.001807980049875306
-0.20105985037406487,-0.011807980049875315
-0.1974688279301746,-0.011832917705735663
-0.1794139650872818,0.003092269326683293
-0.1570324189526185,0.002967581047381547
-0.16037406483790528,0.002705735660847877
-0.1693516209476309,0.002132169576059849
-0.17375311720698253,-0.003852867830423941
-0.2032793017456359,-0.02524937655860349
-0.21255610972568578,-0.03694513715710723
-0.21129675810473814,-0.03386533665835412
-0.22421446384039903,-0.025735660847880294
-0.22620947630922694,-0.032456359102244384
-0.23228179551122197,-0.03887780548628429
-0.21764339152119702,-0.03496259351620948
-0.2225062344139651,-0.04058603491271821
-0.21719451371571075,-0.03081047381546135
-0.21192019950124688,-0.020748129675810474
-0.22678304239401498,-0.050598503740648386
-0.21679551122194513,-0.05057356608478803
-0.21694513715710723,-0.06071072319201995
-0.22208229426433918,-0.05094763092269327
-0.22221945137157106,-0.05618453865336658
-0.22228179551122196,-0.0614713216957606
-0.19723192019950123,-0.07167082294264339
-0.18213216957605988,-0.06684538653366584
-0.17195760598503743,-0.062044887780548626
-0.1667581047381546,-0.05223192019950124
-0.16655860349127183,-0.04740648379052369
-0.18137157107231922,-0.06255610972568579
-0.18125935162094764,-0.07771820448877806
-0.17617206982543643,-0.09291770573566085
-0.17112219451371571,-0.08821695760598504
-0.17104738154613466,-0.08850374064837904
-0.1658852867830424,-0.09369077306733167
-0.17068578553615962,-0.10370324189526184
-0.17043640897755613,-0.11865336658354114
-0.15017456359102244,-0.11355361596009975
-0.14486284289276807,-0.11344139650872817
-0.14456359102244387,-0.10334164588528678
-0.12428927680798008,-0.10324189526184538
-0.1190274314214464,-0.10812967581047382
-0.11379052369077308,-0.11301745635910224
-0.11356608478802993,-0.13291770573566083
-0.118354114713217,-0.1278428927680798
-0.13315461346633414,-0.13271820448877805
-0.13796758104738152,-0.13753117206982543
-0.13779301745635908,-0.15726932668329177
-0.11760598503740652,-0.16197007481296757
-0.10239401496259354,-0.14664588528678305
-0.08721945137157111,-0.13135910224438901
-0.0720324189526185,-0.1261221945137157
-0.06187032418952618,-0.1308852867830424
-0.05173316708229425,-0.1456359102244389
-0.04660847880299254,-0.15537406483790522
-0.05155860349127181,-0.15512468827930176
-0.0715211970074813,-0.15486284289276808
-0.08649625935162095,-0.16961346633416458
-0.0914214463840399,-0.18428927680798007
-0.09632169576059851,-0.1738778054862843
-0.09619700748129678,-0.15841645885286781
-0.08609725685785535,-0.14800498753117208
-0.08100997506234414,-0.13263092269326682
-0.06592269326683292,-0.13728179551122194
-0.060822942643391525,-0.1420074812967581
-0.04578553615960099,-0.1417206982543641
-0.03579800498753119,-0.1314214463840399
-0.025860349127182047,-0.13115960099750623
-0.02596009975062344,-0.12589775561097255
-0.021109725685785535,-0.14061097256857855
-0.016221945137157107,-0.14022443890274314
-0.01630922693266834,-0.11980049875311721
-0.011371571072319231,-0.08430174563591022
-0.006371571072319199,-0.06379052369077307
-0.0013466334164588534,-0.03829177057356608
0.008640897755610971,-0.042805486284289276
0.033615960099750625,-0.03735660847880299
0.03859102244389029,-0.02189526184538653
0.038528678304239394,-0.0014713216957605996
0.023416458852867805,0.003952618453865339
0.018254364089775543,-0.0006359102244389014
-0.001982543640897755,-0.010211970074812962
-0.02221945137157108,-0.0047630922693266825
-0.03744389027431422,0.005723192019950127
-0.03260598503740647,0.02628428927680799
-0.04276807980049879,0.03189526184538653
-0.03786783042394015,0.012531172069825437
-0.017967581047381553,0.028079800498753124
-0.008092269326683305,0.038566084788029927
0.0017581047381546033,0.04900249376558603
-0.0034039900249376587,0.03442643391521197
0.0014089775561097195,0.03488778054862843
-0.003765586034912699,0.01037406483790524
-0.013940149625935178,-0.0041396508728179515
-0.029139650872817946,0.0013466334164588534
-0.04931421446384038,0.01683291770573566
-0.06453865336658354,0.027356608478802995
-0.06477556109725688,0.03791770573566085
-0.0599625935162095,0.023428927680798003
-0.04017456359102245,0.03390274314214464
-0.02033665835411469,0.0193142144638404
-0.015511221945137182,0.029675810473815463
-0.01068578553615962,0.03503740648379053
-0.015972568578553642,0.01534912718204489
-0.01633416458852871,0.010685785536159599
-0.02175810473815462,0.0009600997506234443
-0.0272069825436409,0.0011970074812967663
-0.027655860349127204,0.011371571072319203
-0.028017456359102244,0.016596009975062345
-0.023354114713216967,0.026857855361596003
-0.033640897755610966,0.01211970074812968
-0.003952618453865325,0.022294264339152124
0.005735660847880325,0.02743142144638404
0.0104364089775561,0.022493765586034914
-0.009875311720698249,0.027543640897755614
-0.010162094763092266,0.01763092269326684
-0.015448877805486289,-0.0022693266832917725
-0.020660847880299288,-0.01718204488778055
-0.020798004987531177,-0.017069825436408975
-0.03589775561097258,0.0031047381546134706
-0.04597256857855364,0.013366583541147135
-0.046009975062344166,0.02869077306733167
-0.04099750623441398,0.02406483790523691
-0.0509850374064838,0.02442643391521197
-0.03102244389027431,0.02972568578553616
-0.021047381546134697,0.03992518703241896
-0.01603491271820448,0.015062344139650873
-0.01603491271820448,0.010199501246882792
-0.020972568578553646,-0.009638403990024937
-0.015885286783042407,-0.004501246882793013
-0.025710723192019946,0.0005985037406483797
-0.03547381546134665,0.020710723192019956
-0.030211970074812966,0.0358852867830424
-0.039937655860349114,0.03109725685785536
-0.024638403990024926,0.026296758104738156
-0.014401496259351637,0.021471321695760603
-0.024201995012468835,0.036571072319201994
-0.01902743142144639,0.041608478802992524
-0.0389152119700748,0.041596009975062354
-0.03389027431421443,0.026620947630922695
-0.03389027431421443,0.0016957605985037406
-0.02399002493765584,0.001783042394014965
-0.03415211970074811,0.006845386533665843
-0.03933915211970074,0.016870324189526185
-0.009501246882793024,0.011970074812967583
-0.01467581047381547,0.022169576059850378
-0.009875311720698249,0.04243142144638405
-0.010087281795511244,0.057693266832917714
-0.010374064837905234,0.06786783042394015
-0.010723192019950117,0.08795511221945138
0.018890274314214472,0.07298004987531173
0.03844139650872817,0.053017456359102245
0.05296758104738156,0.04311720698254365
0.052481296758104756,0.043167082294264345
0.07203241895261846,0.07315461346633417
0.07162094763092271,0.07315461346633417
0.09123441396508727,0.058154613466334173
0.11587281795511223,0.05820448877805487
0.135498753117207,0.0483790523690773
0.16509975062344137,0.05354114713216958
0.1697007481296758,0.053665835411471324
0.15928927680798005,0.04374064837905237
0.14885286783042395,0.02879052369077307
0.1333665835411471,0.01885286783042394
0.13280548628428926,0.018902743142144636
0.12720698254364088,0.018977556109725683
0.11659600997506234,0.02400249376558604
0.12102244389027429,0.01399002493765586
0.10054862842892767,0.003952618453865336
0.08518703241895262,-0.0009975062344139626
0.06506234413965085,0.004102244389027433
0.03522443890274311,0.024201995012468832
0.020785536159600992,0.03922693266832918
0.01187032418952616,0.04415211970074814
-0.0013965087281795352,0.03906483790523691
-0.009002493765586012,0.029127182044887782
-0.02596009975062344,0.01447630922693267
-0.0424064837905237,0.005174563591022443
-0.04357855361596011,-0.0037406483790523685
-0.0648129675810474,0.002655860349127185
-0.07142144638403991,-0.015673316708229426
-0.06365336658354115,-0.01876558603491272
-0.061745635910224445,0.0030798004987531193
-0.06574812967581045,0.019675810473815464
-0.06551122194513714,0.02576059850374065
-0.08087281795511223,0.031321695760598504
-0.08658354114713218,0.006396508728179552
-0.08246882793017454,0.011147132169576062
-0.08334164588528678,0.01582294264339152
-0.09413965087281795,0.0004987531172069813
-0.09986284289276809,0.015236907730673316
-0.09552369077306733,0.015049875311720699
-0.09617206982543641,0.009950124688279303
-0.08682044887780549,0.004925187032418954
-0.08260598503740646,-0.0050374064837905245
-0.07850374064837906,-0.004937655860349126
-0.07443890274314213,0.010112219451371572
-0.07042394014962597,0.00014962593516209405
-0.04642144638403989,0.010062344139650875
0.002581047381546131,-0.010012468827930176
0.09662094763092272,-0.0050374064837905245
0.2206359102244389,-0.020012468827930174
0.39967581047381545,-0.02997506234413965
0.6387406483790523,-0.019925187032418953
0.9078802992518703,-0.004825436408977554
1.1971321695760597,0.06027431421446384
1.4464463840399002,0.17039900249376558
1.6008104738154614,0.33056109725685784
1.6552493765586034,0.48069825436408975
1.5646882793017456,0.6057356608478803
1.3491147132169576,0.6856857855361596
1.0185660847880298,0.6856109725685785
0.6530049875311721,0.6205486284289277
0.29748129675810475,0.4755361596009975
0.022007481296758086,0.3255610972568579
-0.15839152119700747,0.14061097256857855
-0.22374064837905236,-0.014339152119700747
-0.21902743142144637,-0.1142643391521197
-0.1792768079800499,-0.14413965087281796
-0.13957605985037405,-0.10908977556109725
-0.0848628428927681,-0.05401496259351621
-0.08018703241895261,-0.009002493765586036
-0.08552369077306735,0.010997506234413968
-0.1008229426433915,0.03594763092269327
-0.13109725685785537,0.01089775561097257
-0.15632169576059848,0.005872817955112221
-0.17650872817955113,-0.0041022443890274315
-0.19165835411471324,-0.009077306733167083
-0.1868079800498753,-0.004039900249376558
-0.17692019950124688,-0.00896508728179551
-0.16204488778054862,-0.018915211970074813
-0.15215710723192016,-0.008852867830423938
-0.13720698254364092,0.016184538653366585
-0.13728179551122197,0.011271820448877808
-0.14743142144638402,0.006246882793017458
-0.1577306733167082,-0.018840399002493766
-0.17324189526184539,-0.02399002493765586
-0.1690648379052369,-0.02912718204488778
-0.1652369077306733,-0.044201995012468825
-0.16699501246882792,-0.03422693266832918
-0.1593640897755611,-0.039226932668329176
-0.15233167082294263,-0.03432668329177058
-0.15588528678304236,-0.01963840399002494
-0.1598877805486284,-0.00023690773067331847
-0.1641521197007481,0.00876558603491272
-0.16342892768079803,-0.00756857855361596
-0.16238154613466338,-0.029189526184538656
-0.15572319201995014,-0.04104738154613466
-0.16829177057356612,-0.04798004987531172
-0.1649625935162095,-0.04471321695760598
-0.16086034912718206,-0.04105985037406484
-0.16617206982543642,-0.03193266832917705
-0.17110972568578556,-0.04738154613466334
-0.17584788029925189,-0.047531172069825434
-0.18548628428927677,-0.05251870324189526
-0.16517456359102245,-0.03745635910224439
-0.16995012468827933,-0.04739401496259352
-0.15483790523690774,-0.06741895261845386
-0.15977556109725688,-0.07763092269326684
-0.15472568578553617,-0.10299251870324189
-0.15468827930174564,-0.09837905236907732
-0.1446009975062344,-0.08374064837905237
-0.13943890274314213,-0.07900249376558605
-0.14423940149625936,-0.07915211970074813
-0.14396508728179552,-0.07927680798004988
-0.14364089775561098,-0.06941396508728179
-0.12824189526184537,-0.06953865336658355
-0.12279301745635912,-0.059663341645885284
-0.10736907730673317,-0.06980049875311721
-0.09193266832917707,-0.0799002493765586
-0.10650872817955112,-0.10003740648379053
-0.10605985037406485,-0.11018703241895261
-0.1055860349127182,-0.13032418952618455
-0.11012468827930175,-0.1303990024937656
-0.10966334164588529,-0.13541147132169576
-0.09421446384039898,-0.14532418952618453
-0.09371571072319201,-0.1401995012468828
-0.08816708229426436,-0.14002493765586035
-0.07760598503740648,-0.12981296758104738
-0.07704488778054863,-0.11958852867830423
-0.07149625935162095,-0.1293765586034913
-0.06093516209476309,-0.1391645885286783
-0.05042394014962595,-0.14395261845386534
-0.04997506234413965,-0.15375311720698254
-0.04953865336658356,-0.15856608478802992
-0.044102244389027434,-0.16832917705735662
-0.048728179551122214,-0.18806733167082296
-0.043329177057356616,-0.1728428927680798
-0.03288029925187033,-0.1525436408977556
-0.03741895261845386,-0.13718204488778055
-0.04693266832917707,-0.1317705735660848
-0.04144638403990025,-0.13640897755610973
-0.05096009975062346,-0.15105985037406483
-0.045473815461346656,-0.150785536159601
-0.04504987531172071,-0.15051122194513716
-0.04467581047381547,-0.14523690773067333
-0.03437655860349127,-0.14492518703241894
-0.014152119700748145,-0.15458852867830425
-0.028890274314214454,-0.14925187032418952
-0.013603491271820464,-0.14392768079800497
-0.033279301745635925,-0.11856608478802992
-0.01785536159600999,-0.10822942643391521
-0.017418952618453887,-0.1028428927680798
0.007992518703241885,-0.08245635910224439
0.028379052369077284,-0.0771072319201995
0.03872817955112218,-0.05178304239401496
0.044039900249376554,-0.03645885286783042
0.05428927680798004,-0.016097256857855357
0.03951371571072318,-0.025710723192019946
0.03972568578553615,-0.03533665835411471
0.024950124688279285,-0.024925187032418954
0.02517456359102241,-0.00953865336658354
0.030498753117206984,0.0009102244389027452
0.015847880299251868,0.01643391521197008
0.026234413965087272,0.026932668329177054
0.026583541147132156,0.02243142144638404
0.026920199501246883,0.03290523690773067
0.012206982543640874,0.03835411471321696
0.0024189526184538734,0.043765586034912714
-0.007394014962593537,0.03418952618453866
-0.007281795511221989,0.009663341645885289
-0.007219451371571095,0.005124688279301747
-0.01211970074812968,-0.014376558603491272
-0.007032418952618469,-0.01385286783042394
-0.001982543640897755,-0.0032793017456359107
0.0031546134663341663,0.012331670822942644
0.0033042394014962673,0.017992518703241894
0.018491271820448865,0.028591022443890276
0.01867830423940149,0.03915211970074813
0.023877805486284306,0.044663341645885285
0.009089775561097246,0.05021197007481297
0.009264339152119716,0.045748129675810476
-0.000598503740648404,0.02627182044887781
-0.005461346633416464,0.011807980049875313
-0.02036159600997503,0.007319201995012469
-0.020236907730673298,0.012842892768079803
-0.010087281795511216,0.02341645885286783
-0.009950124688279327,0.03403990024937656
-0.004775561097256853,0.03465087281795511
0.005374064837905229,0.025261845386533664
-0.00450124688279302,0.02076059850374065
0.0006608478802992424,0.021197007481296763
0.0008104738154613433,0.026608478802992518
0.0008603491271820252,0.041982543640897756
-0.009139650872817984,0.032294264339152126
0.0009102244389027347,0.01756857855361596
0.010947630922693269,-0.0021695760598503732
0.011009975062344135,-0.0018827930174563582
0.016084788029925176,0.01849127182044888
0.0161221945137157,0.018890274314214466
0.011184538653366605,0.029276807980049877
0.011321695760598521,0.019613466334164588
0.016508728179551138,0.009850374064837906
0.02675810473815461,0.03501246882793018
0.021970074812967574,0.045211970074812965
0.017256857855361615,0.04043640897755611
0.017543640897755605,0.0456359102244389
0.0028927680798004896,0.03082294264339152
0.008316708229426428,0.006022443890274315
-0.0011970074812967524,0.006221945137157108
-0.0056234413965087215,0.016446384039900248
-3.740648379052525e-05,0.021670822942643393
0.0004987531172069848,0.026832917705735662
0.011059850374064817,0.016982543640897754
0.036583541147132165,0.02709476309226933
0.04214463840399002,0.01218204488778055
0.042718204488778055,0.017256857855361595
0.03826683291770572,0.017344139650872815
0.023815461346633413,0.022394014962593516
0.019326683291770563,0.01740648379052369
0.004763092269326669,0.002481296758104738
0.005124688279301737,0.007556109725685786
-0.00457605985037407,0.022693266832917707
-0.014301745635910218,0.02786783042394015
-0.01902743142144639,0.04804239401496259
-0.013778054862842892,0.03821695760598504
-0.013516209476309243,0.028391521197007483
0.0016708229426433685,0.013503740648379052
0.006807980049875317,0.018566084788029923
0.011920199501246898,0.02855361596009975
0.006920199501246865,0.02355361596009975
0.011895261845386529,0.023541147132169576
0.021845386533665856,0.02855361596009975
0.036745635910224464,0.03360349127182045
0.04667082294264341,0.048703241895261845
0.056620947630922694,0.0637780548628429
0.06657107231920202,0.07389027431421447
0.07655860349127183,0.08395261845386534
0.0815336658354115,0.06405236907730673
0.08652119700748132,0.05915211970074813
0.09148379052369075,0.059189526184538654
0.12139650872817954,0.06925187032418953
0.12127182044887781,0.08932668329177058
0.13113466334164586,0.0794139650872818
0.14600997506234414,0.05447630922693267
0.15591022443890273,0.034538653366583544
0.15086034912718205,0.024576059850374067
0.14586034912718204,0.014638403990024938
0.13586034912718203,0.034738154613466334
0.13593516209476308,0.04487531172069825
0.11614713216957606,0.044925187032418955
0.1366084788029925,0.0349501246882793
0.13738154613466333,0.019887780548628428
0.13359102244389026,0.014788029925187034
0.12541147132169578,0.009738154613466336
0.10789276807980047,0.009775561097256857
0.08613466334164588,-2.493765586034872e-05
0.06498753117206982,-0.01453865336658354
0.039239401496259374,-0.008653366583541145
0.018591022443890298,0.012605985037406484
0.022718204488778065,0.03918952618453865
0.02132169576059853,0.05603491271820449
0.01907730673316707,0.06288029925187033
0.005922693266832896,0.039526184538653364
-0.01812967581047381,0.020760598503740648
-0.03283042394014962,0.016571072319201997
-0.05796758104738153,0.011932668329177058
-0.07830423940149625,0.01192019950124688
-0.08861596009975065,0.0016458852867830415
-0.08385286783042395,0.001259351620947629
-0.07902743142144639,-0.009052369077306735
-0.06407730673316708,0.005773067331670824
-0.06411471321695761,0.020698254364089775
-0.07922693266832917,0.0356857855361596
-0.08940149625935162,0.030698254364089773
-0.08465087281795514,0.01062344139650873
-0.08500000000000002,-0.004488778054862844
-0.0903865336658354,0.00037406483790523685
-0.0858354114713217,0.005236907730673316
-0.10128428927680799,-0.004875311720698255
-0.11175810473815456,-0.009962593516209478
-0.11723192019950124,-0.030074812967581046
-0.13773067331670824,-0.03512468827930175
-0.12325436408977555,-0.050062344139650876
-0.09379052369077309,-0.004975062344139651
-0.02935162094763094,0.01513715710723192
0.050112219451371565,0.030187032418952618
0.17457605985037408,0.010187032418952618
0.3340648379052369,-0.009850374064837908
0.57356608478803,-0.02997506234413965
0.8181047381546135,-0.030037406483790524
1.0776932668329178,0.009912718204488778
1.3173441396508727,0.08992518703241895
1.501995012468828,0.19992518703241896
1.6067082294264339,0.3400124688279302
1.6065087281795511,0.4800997506234414
1.4613715710723192,0.5901371571072319
1.2113092269326682,0.6801496259351621
0.9013216957605985,0.6900997506234414
0.5613591022443891,0.6050124688279301
0.26642144638403986,0.46491271820448876
0.046546134663341676,0.28985037406483793
-0.08832917705735663,0.12482543640897756
-0.15826683291770577,-0.00017456359102244537
-0.1881920199501247,-0.08022443890274314
-0.16311720698254364,-0.11028678304239402
-0.1329426433915212,-0.11027431421446385
-0.10778054862842895,-0.07528678304239401
-0.10256857855361598,-0.015286783042394014
-0.10235660847880301,0.02970074812967581
-0.10213216957605989,0.04965087281795512
-0.12190773067331667,0.05455112219451372
-0.14169576059850375,0.02442643391521197
-0.1514837905236908,-0.005723192019950127
-0.16629675810473818,-0.020885286783042398
-0.18109725685785533,-0.021009975062344144
-0.1958728179551122,-0.02608478802992519
-0.2055985037406484,-0.016134663341645886
-0.185286783042394,-0.011122194513715713
-0.18990024937655858,-0.021072319201995017
-0.17947630922693264,-0.021009975062344144
-0.18416458852867829,-0.016034912718204487
-0.19402743142144638,-0.0011471321695760602
-0.18415211970074813,0.008678304239401496
-0.1796882793017456,0.0034663341645885283
-0.17072319201995018,-0.011695760598503743
-0.1822942643391521,-0.03183291770573566
-0.17947630922693267,-0.04694513715710723
-0.18226932668329177,-0.0472069825436409
-0.18557356608478803,-0.032693266832917706
-0.19932668329177056,-0.023391521197007485
-0.21321695760598502,-0.02937655860349127
-0.21693266832917704,-0.04063591022443891
-0.21522443890274312,-0.032069825436408975
-0.22785536159600997,-0.018653366583541147
-0.22473815461346633,-0.020286783042394015
-0.21088528678304239,-0.026870324189526184
-0.21638403990024938,-0.03321695760598504
-0.21639650872817956,-0.04917705735660848
-0.21107231920199498,-0.06470074812967581
-0.2106359102244389,-0.07483790523690773
-0.21516209476309225,-0.06975062344139651
-0.2097007481296758,-0.06467581047381546
-0.21427680798004986,-0.05971321695760598
-0.19889027431421447,-0.07483790523690773
-0.1934788029925187,-0.07
-0.1830548628428928,-0.0701995012468828
-0.1675561097256858,-0.07043640897755611
-0.18194513715710725,-0.06072319201995012
-0.1863341645885287,-0.07102244389027432
-0.18063591022443892,-0.07629675810473815
-0.1999875311720698,-0.0814713216957606
-0.1993017456359102,-0.09155860349127182
-0.18361596009975065,-0.08663341645885288
-0.17786783042394017,-0.09164588528678304
-0.1620573566084788,-0.08668329177057357
-0.15119700748129677,-0.0966708229426434
-0.13029925187032423,-0.11163341645885287
-0.11936408977556112,-0.11150872817955113
-0.11350374064837906,-0.10140897755610973
-0.1126558603491272,-0.10633416458852868
-0.12180798004987534,-0.1112718204488778
-0.1309226932668329,-0.12620947630922694
-0.13002493765586032,-0.1511221945137157
-0.1391645885286783,-0.14594763092269325
-0.1432418952618454,-0.14072319201995015
-0.13734413965087283,-0.1404862842892768
-0.12144638403990027,-0.1502493765586035
-0.09558603491271822,-0.14997506234413965
-0.08476309226932668,-0.15467581047381546
-0.06900249376558604,-0.15437655860349128
-0.05827930174563592,-0.13911471321695762
-0.07258104738154614,-0.13890274314214465
-0.061920199501246886,-0.1537780548628429
-0.05622194513715714,-0.17366583541147132
-0.07048628428927681,-0.1835286783042394
-0.06468827930174567,-0.1933291770573566
-0.07390274314214465,-0.19307980049875312
-0.07307980049875312,-0.18280548628428928
-0.08228179551122194,-0.18251870324189526
-0.08150872817955113,-0.1922194513715711
-0.07581047381546135,-0.1819077306733167
-0.07014962593516211,-0.156571072319202
-0.06453865336658354,-0.14625935162094764
-0.05894014962593516,-0.14098503740648377
-0.05334164588528681,-0.15076059850374066
-0.05271820448877809,-0.17549875311720697
-0.05706982543640901,-0.18021197007481296
-0.06643391521197006,-0.16987531172069825
-0.07583541147132172,-0.16952618453865337
-0.060261845386533675,-0.1391645885286783
-0.07475062344139652,-0.13880299251870323
-0.05927680798004986,-0.12846633416458852
-0.028778054862842878,-0.10811720698254365
-0.013291770573566092,-0.07270573566084788
-0.0028428927680798077,-0.06234413965087282
-0.002369077306733164,-0.04697007481296758
-0.0068703241895261835,-0.03670822942643391
-0.011384039900249388,-0.05644638403990025
0.00403990024937656,-0.056134663341645887
-0.005598503740648408,-0.030798004987531172
-0.005299251870324179,-0.02537406483790524
-0.005012468827930161,-0.0049127182044887766
-0.01472568578553618,0.015511221945137158
0.0006109725685785605,0.0009725685785536165
-0.00910224438902743,0.021496259351620948
-0.00887780548628428,0.03203241895261845
-0.01365336658354116,0.022593516209476312
-0.01851620947630922,0.018129675810473814
-0.02342892768079799,0.008603491271820446
-0.028428927680797994,0.004052369077306732
-0.02846633416458852,0.004513715710723192
-0.018466334164588538,0.02
-0.0384912718204489,0.010536159600997505
-0.038428927680798,0.016034912718204487
-0.05331670822942641,0.026608478802992518
-0.06317955112219453,0.03213216957605985
-0.06309226932668333,0.03266832917705735
-0.05807980049875311,0.03825436408977556
-0.0630922693266833,0.04389027431421447
-0.04812967581047381,0.014526184538653366
-0.038266832917705745,0.02013715710723192
-0.04342892768079801,0.015673316708229423
-0.04864089775561101,0.01623441396508728
-0.05891521197007482,0.02180798004987531
-0.06423940149625934,0.017481296758104736
-0.07957605985037408,0.008179551122194512
-0.06995012468827932,0.018852867830423937
-0.07032418952618455,0.029438902743142144
-0.06571072319201995,0.05002493765586035
-0.046134663341645926,0.050561097256857854
-0.04657107231920202,0.03604738154613466
-0.032057356608478804,0.021521197007481296
-0.012531172069825458,0.02697007481296758
-0.028017456359102244,0.022381546134663335
-0.03850374064837905,0.037768079800498754
-0.05397755610972571,0.02815461346633416
-0.07441396508728179,0.02359102244389027
-0.06480049875311722,0.014014962593516207
-0.07013715710723192,0.019376558603491266
-0.07048628428927683,0.029700748129675807
-0.05579800498753121,0.0349501246882793
-0.036047381546134655,0.03019950124688279
-0.03129675810473817,0.020486284289276804
-0.026571072319202027,0.025760598503740646
-0.031857855361595994,0.015997506234413962
-0.04715710723192021,0.026134663341645884
-0.062493765586034894,0.031234413965087283
-0.05786783042394014,0.006234413965087275
-0.063216957605985,0.0012842892768079803
-0.06854114713216958,0.016433915211970074
-0.07390274314214462,0.03157107231920199
-0.07425187032418953,0.05168329177057357
-0.06965087281795512,0.05674563591022444
-0.0750997506234414,0.04679551122194514
-0.07057356608478804,0.026820448877805488
-0.0860847880299252,0.026870324189526177
-0.08167082294264338,0.0219077306733167
-0.08730673316708232,0.021870324189526176
-0.07301745635910223,0.02179551122194514
-0.07379052369077307,0.016758104738154617
-0.07960099750623442,-0.00820448877805486
-0.07044887780548625,-0.008092269326683298
-0.07130922693266833,0.007057356608478803
-0.06721945137157107,0.027144638403990024
-0.08319201995012468,0.04716957605985037
-0.08920199501246884,0.04218204488778055
-0.07523690773067332,0.03716957605985037
-0.08135910224438903,0.042169576059850375
-0.07254364089775564,0.05711970074812967
-0.05871571072319201,0.062044887780548626
-0.05487531172069823,0.06194513715710723
-0.05599750623441396,0.06684538653366584
-0.03209476309226933,0.061845386533665836
-0.02322942643391518,0.07692019950124687
-0.024364089775561093,0.08699501246882793
-0.01048628428927681,0.09704488778054862
-0.016608478802992516,0.09703241895261845
-0.007755610972568577,0.09197007481296758
-0.003927680798004984,0.08694513715710722
0.014850374064837912,0.07188279301745637
0.028603491271820422,0.07183291770573566
0.04734413965087281,0.056708229426433915
0.07108478802992518,0.03659600997506234
0.07486284289276807,0.021408977556109723
0.07372817955112218,0.00633416458852868
0.05278054862842892,0.006346633416458851
0.03703241895261847,0.021471321695760597
0.031633416458852856,0.031521197007481294
0.03164588528678304,0.05149625935162094
0.01723192019950126,0.03640897755610972
0.008391521197007479,0.02625935162094763
-0.004812967581047378,0.0062468827930174525
-0.002406483790523689,0.026458852867830427
-0.02452618453865338,0.011932668329177058
-0.05640897755610971,0.022730673316708222
-0.07331670822942643,0.028865336658354116
-0.09557356608478801,0.020299251870324185
-0.11339152119700752,0.0369576059850374
-0.13194513715710723,0.04869077306733167
-0.13630922693266834,0.06023690773067332
-0.1563840399002494,0.05139650872817955
-0.16203241895261847,0.04713216957605985
-0.14300498753117208,0.022418952618453867
-0.15416458852867831,0.04243142144638404
-0.16542394014962597,0.042269326683291766
-0.18665835411471324,0.027007481296758104
-0.18779301745635912,0.026708229426433916
-0.19390274314214462,0.0014713216957605996
-0.19999999999999996,-0.0036034912718204484
-0.20107231920199498,-0.013541147132169577
-0.20215710723192015,0.011608478802992525
-0.18827930174563592,0.036758104738154614
-0.18445137157107233,0.05178304239401497
-0.1806857855361596,0.056708229426433915
-0.1869700748129676,0.04158354114713217
-0.19832917705735664,0.0314713216957606
-0.20478802992518702,0.021334164588528676
-0.21627182044887777,0.006197007481296757
-0.23278054862842892,-0.018927680798004984
-0.23430174563591022,-0.03407730673316708
-0.20584788029925188,-0.01915211970074813
-0.13744389027431425,0.005847880299251866
-0.034077306733167084,0.010935162094763091
0.12433915211970073,0.026059850374064837
0.32281795511221945,0.0011471321695760567
0.5513715710723192,-0.018790523690773067
0.7949002493765587,-0.023802992518703242
1.0434788029925188,0.03617206982543641
1.2570573566084788,0.13613466334164587
1.4356234413965088,0.2310847880299252
1.4941645885286783,0.33608478802992514
1.432705735660848,0.4361221945137157
1.2713216957605986,0.5011720698254364
1.005,0.5513092269326684
0.7037531172069825,0.5664463840399003
0.41259351620947626,0.5365336658354115
0.1465586034912718,0.42155860349127183
-0.04442643391521198,0.281571072319202
-0.17034912718204492,0.12659600997506235
-0.22120947630922694,-0.013441396508728179
-0.24704488778054862,-0.09850374064837907
-0.23788029925187032,-0.09860349127182046
-0.23369077306733171,-0.06866583541147132
-0.21450124688279304,-0.033703241895261846
-0.22527431421446387,-0.01869077306733167
-0.23103491271820453,0.0013466334164588534
-0.25175810473815463,0.01635910224438903
-0.2774189526184539,0.026384039900249373
-0.29307980049875315,0.03640897755610973
-0.31374064837905236,0.03143391521197007
-0.3143516209476309,0.01648379052369077
-0.3149875311720698,-0.008491271820448884
-0.3156234413965087,-0.008516209476309225
-0.31624688279301744,-0.013566084788029925
-0.3218453865336658,0.001334164588528676
-0.33236907730673315,0.006284289276807978
-0.3428304239401496,0.011259351620947634
-0.3482044887780549,-0.00376558603491272
-0.33350374064837907,-0.0037157107231920172
-0.3287655860349127,-0.003653366583541151
-0.3440149625935162,0.011346633416458848
-0.3593640897755611,0.02628428927680798
-0.3599127182044888,0.02620947630922693
-0.36077306733167086,0.006072319201995011
-0.3770573566084788,-0.004052369077306731
-0.36890274314214466,-0.014164588528678308
-0.3713341645885287,-0.004301745635910223
-0.3743640897755611,-0.014526184538653363
-0.3729426433915212,-0.019887780548628428
-0.3619576059850374,-0.030473815461346643
-0.3512219451371571,-0.04144638403990025
-0.3454364089775561,-0.02774314214463841
-0.3394014962593517,-0.0144139650872818
-0.35280548628428926,-0.011346633416458848
-0.365498753117207,-0.013354114713216958
-0.3874563591022444,-0.025224438902743146
-0.38370324189526184,-0.041770573566084795
-0.38438902743142145,-0.042892768079800504
-0.37471321695760595,-0.038591022443890274
-0.3598254364089775,-0.03889027431421446
-0.3448628428927681,-0.03896508728179551
-0.3299127182044888,-0.05391521197007482
-0.32001246882793016,-0.0638154613466334
-0.32018703241895263,-0.06380299251870325
-0.3354114713216958,-0.04891521197007481
-0.3455860349127182,-0.059164588528678314
-0.34571072319202,-0.05948877805486285
-0.3407481296758105,-0.06982543640897756
-0.32076059850374067,-0.07512468827930176
-0.3007730673316708,-0.09042394014962594
-0.2857605985037407,-0.09567331670822943
-0.26577306733167083,-0.0859351620947631
-0.275785536159601,-0.08614713216957606
-0.2706982543640898,-0.0962718204488778
-0.2655486284289277,-0.08623441396508728
-0.2653491271820449,-0.10612219451371571
-0.2651122194513716,-0.08098503740648379
-0.25983790523690775,-0.08086034912718204
-0.22956359102244386,-0.08082294264339152
-0.20428927680798006,-0.09083541147132171
-0.18408977556109726,-0.1157481296758105
-0.17891521197007482,-0.14069825436408978
-0.17376558603491274,-0.13557356608478804
-0.18360349127182043,-0.1254364089775561
-0.1683790523690773,-0.1403366583541147
-0.14816708229426434,-0.15009975062344139
-0.14791770573566085,-0.1548004987531172
-0.12764339152119702,-0.15952618453865336
-0.10238154613466335,-0.1593017456359102
-0.07709476309226934,-0.14913965087281794
-0.06682044887780549,-0.1440274314214464
-0.07658354114713219,-0.1488653366583541
-0.0663715710723192,-0.16365336658354115
-0.09123441396508727,-0.15845386533665834
-0.08610972568578554,-0.17821695760598502
-0.09102244389027431,-0.1729925187032419
-0.07096009975062345,-0.17275561097256859
-0.045860349127182044,-0.19249376558603493
-0.05074812967581048,-0.20716957605985037
-0.0456359102244389,-0.21179551122194512
-0.020473815461346634,-0.2165087281795511
-0.010299251870324197,-0.18123441396508727
-0.00017456359102244884,-0.1760224438902743
0.014925187032418949,-0.1758354114713217
0.03,-0.1956359102244389
0.04002493765586035,-0.21544887780548627
0.05501246882793017,-0.2152369077306733
0.07003740648379052,-0.19498753117206982
0.08003740648379053,-0.18972568578553617
0.10007481296758106,-0.15941396508728178
0.10016209476309226,-0.14405236907730673
0.12526184538653368,-0.13870324189526184
0.13041147132169578,-0.12334164588528679
0.15058603491271821,-0.10298004987531173
0.16076059850374064,-0.07768079800498753
0.16588528678304237,-0.062356608478803
0.16097256857855363,-0.0720573566084788
0.15099750623441396,-0.05674563591022443
0.13599750623441398,-0.05142144638403991
0.14597256857855362,-0.041097256857855355
0.13591022443890274,-0.010723192019950117
0.14091022443890275,-0.00036159600997506813
0.14096009975062346,0.0050498753117207
0.1610224438902743,0.00046134663341645954
0.181072319201995,-0.009064837905236905
0.1961221945137157,0.011384039900249374
0.20614713216957603,0.01684538653366584
0.2161221945137157,0.04725685785536159
0.1961221945137157,0.047581047381546136
0.18610972568578554,0.0178927680798005
0.18108478802992517,0.023291770573566087
0.19604738154613466,0.023765586034912717
0.21600997506234412,0.0292643391521197
0.2309725685785536,0.029775561097256854
0.23094763092269327,0.03531172069825437
0.22594763092269327,0.025785536159600997
0.23094763092269327,0.02128428927680798
0.22594763092269327,0.03677057356608479
0.22594763092269327,0.0572069825436409
0.2259850374064838,0.06261845386533665
0.24099750623441396,0.05800498753117207
0.2509850374064838,0.04330423940149626
0.2509850374064838,0.03364089775561097
0.2559725685785536,0.03405236907730673
0.2559850374064838,0.03952618453865337
0.25596009975062345,0.04001246882793018
0.24096009975062344,0.04546134663341646
0.2559226932668329,0.04091022443890275
0.2708728179551122,0.051384039900249374
0.2708354114713217,0.061870324189526184
0.27079800498753115,0.06235660847880299
0.2707605985037406,0.07778054862842892
0.2606857855361596,0.05312967581047381
0.2606733167082294,0.03846633416458852
0.2506234413965087,0.03380299251870324
0.25054862842892767,0.024139650872817955
0.250498753117207,0.03446384039900249
0.2554114713216957,0.05975062344139651
0.27034912718204485,0.050024937655860344
0.2753117206982544,0.055274314214463834
0.2753990024937656,0.045461346633416465
0.27556109725685785,0.05566084788029924
0.2557980049875312,0.04581047381546135
0.25605985037406487,0.06087281795511222
0.251359102244389,0.060860349127182044
0.24160847880299252,0.04581047381546134
0.24177057356608478,0.015798004987531165
0.22694513715710724,0.02584788029925187
0.22213216957605986,0.03588528678304239
0.23234413965087283,0.04096009975062343
0.24756857855361597,0.06596009975062345
0.25279301745635907,0.050922693266832915
0.24804239401496259,0.04086034912718204
0.24325436408977555,0.045872817955112215
0.25341645885286784,0.055885286783042394
0.263428927680798,0.06087281795511222
0.25836658354114717,0.05084788029925187
0.2331920199501247,0.05077306733167082
0.21798004987531172,0.03077306733167082
0.2027182044887781,0.020810473815461347
0.19244389027431422,0.035910224438902745
0.20214463840399005,0.031009975062344142
0.19684538653366584,0.04608478802992519
0.20164588528678307,0.03107231920199501
0.21143391521197008,0.02113466334164589
0.22618453865336657,0.031184538653366584
0.21592269326683292,0.04622194513715711
0.2306359102244389,0.05620947630922694
0.23032418952618455,0.051097256857855364
0.22,0.04094763092269327
0.22463840399002494,0.025785536159600997
0.21928927680798005,0.030735660847880295
0.21900249376558603,0.05077306733167082
0.233715710723192,0.06087281795511222
0.23844139650872817,0.0659725685785536
0.25315461346633417,0.06099750623441396
0.27786783042394014,0.06599750623441397
0.27758104738154615,0.07597256857855361
0.3072817955112219,0.07592269326683292
0.30694513715710725,0.0758354114713217
0.326571072319202,0.045660847880299255
0.3412593516209476,0.02049875311720698
0.34608478802992515,0.0004114713216957569
0.3361845386533666,-0.004650872817955114
0.3166832917705736,0.005361596009975059
0.2977431421446384,0.0003615960099750612
0.29942643391521195,0.010336658354114708
0.2867581047381546,0.00024937655860348545
0.28970074812967583,0.005311720698254363
0.29816708229426436,0.02559850374064837
0.30203241895261845,0.01610972568578553
0.29604738154613464,-0.003142144638403996
0.2699127182044888,-0.017182044887780565
0.25336658354114716,-0.04108478802992519
0.21615960099750625,-0.024850374064837907
0.18829177057356608,-0.003553615960099746
0.15468827930174564,0.017705735660847877
0.1304364089775561,0.018728179551122194
0.10572319201995012,-0.0005735660847880283
0.0856857855361596,0.009725685785536155
0.07553615960099751,0.009600997506234409
0.0703366583541147,0.029289276807980047
0.06516209476309226,0.018990024937655857
0.05998753117206981,0.013778054862842892
0.05982543640897754,-0.021396508728179553
0.05962593516209476,-0.026521197007481304
0.05441396508728179,-0.016620947630922693
0.044189526184538655,-0.021645885286783045
0.02891521197007481,-0.01165835411471322
0.0236284289276808,-0.021620947630922698
0.008329177057356599,-0.03659600997506235
-0.0019700748129675844,-0.0316209476309227
-0.002231920199501247,-0.021745635910224444
0.007468827930174546,-0.006895261845386538
0.002132169576059842,0.007967581047381544
-0.013229426433915226,-0.007144638403990031
-0.02862842892768082,-0.027231920199501256
-0.04408977556109728,-0.042381546134663356
-0.06458852867830424,-0.07258104738154614
-0.07508728179551123,-0.06780548628428928
-0.08058603491271822,-0.04802992518703242
-0.05109725685785538,-0.02820448877805487
0.018316708229426423,-0.03835411471321695
0.1427431421446384,-0.038491271820448876
0.3021695760598504,-0.03869077306733167
0.5215461346633417,-0.03890274314214464
0.7608728179551123,-0.02912718204488779
1.0151620947630924,-0.0043142144638404
1.2593516209476308,0.05046134663341646
1.4435286783042394,0.13522443890274316
1.5576807980049876,0.28993765586034914
1.5468204488778055,0.4347007481296758
1.4310099750623442,0.5845511221945138
1.215286783042394,0.6744638403990025
0.9345885286783042,0.6844139650872818
0.6238778054862844,0.6193391521197007
0.343142144638404,0.47922693266832916
0.1074937655860349,0.30910224438902745
-0.038142144638404,0.1490274314214464
-0.13372817955112218,-0.011084788029925192
-0.1642518703241895,-0.11120947630922694
-0.15470074812967582,-0.151359102244389
-0.1300498753117207,-0.14654613466334165
-0.09531172069825437,-0.10173316708229427
-0.07053615960099752,-0.04689526184538654
-0.08576059850374065,-0.001995012468827932
-0.1059226932668329,0.0028553615960099643
-0.14605985037406483,0.0026932668329177
-0.16612219451371568,-0.002493765586034917
-0.17610972568578553,-0.0026807980049875363
-0.17104738154613464,0.007132169576059846
-0.1759351620947631,0.011945137157107232
-0.16076059850374066,0.0017456359102244329
-0.1706359102244389,-0.013478802992518711
-0.18048628428927682,-0.043728179551122195
-0.19032418952618455,-0.06390274314214464
-0.20518703241895264,-0.05912718204488778
-0.22499999999999998,-0.04430174563591023
-0.22976309226932667,-0.029451371571072325
-0.2144513715710723,-0.009613466334164586
-0.19405236907730675,-0.02483790523690773
-0.18360349127182046,-0.0050872817955112185
-0.173142144638404,-0.015399002493765586
-0.18764339152119702,-0.0007107231920199519
-0.19713216957605986,-0.0009850374064837922
-0.2016334164588529,-0.03629675810473816
-0.21609725685785536,-0.05158354114713218
-0.23061097256857854,-0.05189526184538654
-0.23021197007481295,-0.03723192019950125
-0.24498753117206984,-0.02261845386533666
-0.2450623441396509,-0.007980049875311722
-0.23057356608478802,-0.028266832917705736
-0.2116957605985037,-0.03355361596009975
-0.20350374064837906,-0.03887780548628429
-0.20110972568578556,-0.04933915211970075
-0.2043765586034913,-0.0350498753117207
-0.20811720698254366,-0.03603491271820449
-0.22692019950124687,-0.047306733167082296
-0.23032418952618453,-0.0688279301745636
-0.23805486284289276,-0.08552369077306733
-0.24488778054862842,-0.08216957605985037
-0.24069825436408976,-0.07359102244389028
-0.2256982543640898,-0.05455112219451371
-0.22007481296758108,-0.045112219451371574
-0.2190773067331671,-0.04533665835411471
-0.2029551122194514,-0.04546134663341646
-0.20183291770573566,-0.06567331670822943
-0.20576059850374068,-0.07103491271820449
-0.19477556109725686,-0.06640897755610974
-0.20381546134663342,-0.06685785536159602
-0.20281795511221945,-0.08728179551122195
-0.20675810473815465,-0.09768079800498754
-0.21052369077306735,-0.11806733167082294
-0.19918952618453867,-0.11339152119700746
-0.21275561097256862,-0.0935785536159601
-0.20127182044887781,-0.08866583541147133
-0.19978802992518704,-0.08870324189526184
-0.1932917705735661,-0.09880299251870325
-0.17182044887780548,-0.11392768079800497
-0.16541147132169576,-0.1090274314214464
-0.14896508728179553,-0.11908977556109726
-0.15753117206982545,-0.1090773067331671
-0.1560847880299252,-0.1340648379052369
-0.15463840399002493,-0.1440149625935162
-0.143142144638404,-0.16400249376558604
-0.14659600997506234,-0.16400249376558604
-0.15001246882793018,-0.15891521197007483
-0.14341645885286786,-0.1337780548628429
-0.146783042394015,-0.12355361596009976
-0.14521197007481298,-0.12337905236907731
-0.14364089775561098,-0.14330423940149625
-0.14210723192019953,-0.15821695760598503
-0.14053615960099752,-0.14814214463840397
-0.13394014962593517,-0.14805486284289276
-0.1423441396508728,-0.1680049875311721
-0.14576059850374062,-0.16293017456359105
-0.15917705735660848,-0.1728428927680798
-0.15255610972568578,-0.17270573566084788
-0.1559351620947631,-0.1525062344139651
-0.15431421446384042,-0.14223192019950123
-0.14269326683291772,-0.13697007481296758
-0.13602244389027432,-0.12674563591022445
-0.12936408977556108,-0.1415586034912718
-0.12274314214463841,-0.15638403990024938
-0.12610972568578552,-0.16120947630922694
-0.12456359102244388,-0.14604738154613467
-0.13802992518703242,-0.1358977556109726
-0.10653366583541146,-0.1407356608478803
-0.10500000000000001,-0.14557356608478803
-0.09839152119700748,-0.13532418952618455
-0.08174563591022445,-0.12997506234413966
-0.07503740648379054,-0.10457605985037408
-0.05831670822942642,-0.0691645885286783
-0.056658354114713205,-0.06885286783042394
-0.030037406483790524,-0.053591022443890274
-0.01849127182044888,-0.04332917705735661
-0.011995012468827948,-0.028104738154613465
-0.00053615960099751,-0.012880299251870328
0.00094763092269326,-0.01258104738154614
-0.002556109725685818,-0.00728179551122194
-0.031047381546134706,0.003054862842892768
-0.04450124688279303,-0.0016209476309226936
-0.052942643391521216,0.0037780548628428903
-0.03644638403990025,0.01917705735660848
-0.044937655860349146,0.03461346633416459
-0.023453865336658358,0.03501246882793018
-0.007032418952618469,0.020399002493765587
-0.025660847880299265,0.010723192019950131
-0.03433915211970073,0.026059850374064844
-0.04304239401496257,0.03139650872817955
-0.061720698254364076,0.046733167082294254
-0.07034912718204489,0.05216957605985038
-0.09396508728179553,0.04260598503740648
-0.07758104738154617,0.03305486284289277
-0.0811720698254364,0.01850374064837905
-0.054738154613466344,0.03896508728179551
-0.043279301745635934,0.04942643391521197
-0.021857855361596013,0.059850374064837904
-0.025523690773067348,0.04531172069825436
-0.02423940149625936,0.040698254364089775
-0.023004987531172083,0.026047381546134663
-0.03180798004987534,0.01639650872817955
-0.03559850374064841,0.021695760598503734
-0.05440149625935162,0.03203241895261845
-0.05819201995012471,0.02236907730673316
-0.051945137157107246,0.027705735660847875
-0.06562344139650872,0.018054862842892767
-0.054301745635910226,0.038416458852867826
-0.04793017456359103,0.053765586034912716
-0.04657107231920202,0.06408977556109725
-0.030286783042394017,0.059364089775561096
-0.03403990024937656,0.03953865336658354
-0.04286783042394013,0.02967581047381546
-0.036733167082294266,0.01977556109725686
-0.03559850374064838,0.024887780548628426
-0.03446384039900249,0.04002493765586034
-0.043304239401496275,0.040162094763092265
-0.04709476309226934,0.04027431421446384
-0.05084788029925186,0.03541147132169576
-0.049501246882793004,0.025511221945137157
-0.033129675810473797,0.04562344139650873
-0.026658354114713206,0.0556857855361596
-0.01014962593516211,0.0506857855361596
-0.01360349127182045,0.0456359102244389
-0.01211970074812968,0.030523690773067328
-0.03571072319201998,0.010399002493765581
-0.05436408977556109,0.00031172069825435855
-0.06800498753117207,0.020286783042394008
-0.061720698254364104,0.02022443890274314
-0.055399002493765614,0.030174563591022437
-0.03405236907730674,0.03514962593516209
-0.032693266832917706,0.04511221945137157
-0.03130922693266833,0.06003740648379052
-0.024987531172069838,0.06991271820448877
-0.02372817955112222,0.06475062344139651
-0.05758104738154615,0.05457605985037405
-0.05153366583541147,0.03946384039900249
-0.05554862842892769,0.019351620947630918
-0.059576059850374063,0.009251870324189525
-0.05369077306733169,0.014102244389027428
-0.05786783042394017,0.04396508728179551
-0.06213216957605988,0.03389027431421446
-0.061408977556109745,0.028877805486284287
-0.05566084788029929,0.02381546134663342
-0.03992518703241896,0.04376558603491272
-0.03416458852867832,0.03862842892768079
-0.03337905236907729,0.048516209476309226
-0.04759351620947633,0.03340399002493766
-0.051870324189526196,0.03825436408977556
-0.06118453865336662,0.02811720698254364
-0.07552369077306731,0.027930174563591027
-0.07488778054862844,0.0327431421446384
-0.08927680798004989,0.04759351620947631
-0.07367830423940147,0.05746882793017456
-0.05804239401496264,0.04739401496259352
-0.052406483790523706,0.05230673316708229
-0.04682044887780551,0.04716957605985037
-0.03129675810473817,0.07703241895261845
-0.020835411471321702,0.08188279301745637
-0.0054239401496259665,0.09162094763092268
-2.4937655860340913e-05,0.09133416458852868
-0.0096134663341646,0.08603491271820449
0.0058852867830423705,0.09081047381546134
0.0015960099750623458,0.08559850374064838
0.002605985037406472,0.0904364089775561
0.009002493765586012,0.08532418952618454
0.04094763092269327,0.08021197007481297
0.05849127182044889,0.07512468827930174
0.10168329177057356,0.08006234413965088
0.11552369077306734,0.08013715710723192
0.14481296758104736,0.09041147132169576
0.16940149625935164,0.06108478802992519
0.163927680798005,0.042057356608478806
0.14314214463840402,0.0333790523690773
0.12683291770573563,0.0249501246882793
0.12483790523690769,0.03658354114713217
0.1170573566084788,0.043092269326683294
0.08861596009975065,0.034251870324189526
0.08460099750623445,0.014950124688279297
0.07522443890274316,0.03522443890274314
0.06564837905236912,0.04011221945137157
0.05100997506234414,0.04980049875311721
0.026321695760598507,0.0494139650872818
0.0016957605985037372,0.03901496259351621
-0.012842892768079761,0.028703241895261848
-0.027306733167082264,0.018466334164588524
-0.06182044887780552,0.028316708229426432
-0.07138403990024933,0.03321695760598503
-0.09605985037406484,0.03314214463840398
-0.1057730673316708,0.02806733167082294
-0.10548628428927687,0.01299251870324189
-0.11019950124688283,0.007930174563591026
-0.114925187032419,0.022855361596009968
-0.10465087281795515,0.0327431421446384
-0.109426433915212,0.03256857855361596
-0.10928927680798006,0.01231920199501247
-0.09925187032418953,0.011945137157107232
-0.11928927680798007,0.016546134663341643
-0.1344014962593516,0.006147132169576061
-0.13456359102244392,0.010885286783042396
-0.14468827930174566,0.0256857855361596
-0.14477556109725687,0.01048628428927681
-0.14487531172069829,0.01028678304239402
-0.1549625935162095,0.015049875311720695
-0.17009975062344146,0.009862842892768078
-0.15029925187032417,0.00975062344139651
-0.14554862842892774,-0.010411471321695759
-0.1258354114713217,-0.005586034912718203
-0.07114713216957608,-0.0007855361596010024
0.023566084788029906,0.01903990024937656
0.16821695760598504,0.018877805486284288
0.3528802992518703,-0.006209476309226934
0.5875810473815462,-0.0113216957605985
0.8723815461346633,-0.011446384039900247
1.1672319201995012,0.04841645885286783
1.4371197007481298,0.12825436408977556
1.6221197007481298,0.243142144638404
1.6671695760598504,0.3580548628428928
1.5322568578553617,0.437930174563591
1.2573940149625935,0.49276807980049875
0.9025436408977556,0.4675436408977556
0.517718204488778,0.37229426433915214
0.20290523690773066,0.22203241895261844
-0.03685785536159597,0.06684538653366584
-0.17155860349127178,-0.06832917705735661
-0.20623441396508724,-0.12844139650872816
-0.19583541147132166,-0.1135286783042394
-0.16042394014962597,-0.05367830423940151
-0.10996259351620952,-0.028852867830423942
-0.08943890274314215,0.006022443890274308
-0.08399002493765584,0.025885286783042392
-0.1085286783042394,0.03071072319201995
-0.15307980049875308,0.030486284289276806
-0.18764339152119708,0.02016209476309226
-0.20719451371571074,-0.0151496259351621
-0.21679551122194518,-0.030423940149625933
-0.21137157107231924,-0.035635910224438905
-0.2209351620947631,-0.020798004987531177
-0.22048628428927686,0.004014962593516205
-0.20995012468827934,-0.001246882793017462
-0.21433915211970078,-0.006533665835411477
-0.21867830423940154,-0.0067830423940149626
-0.21802992518703246,0.0030174563591022427
-0.217356608478803,-0.007206982543640904
-0.21674563591022444,0.0025062344139650874
-0.2162344139650873,-0.002905236907730674
-0.21588528678304242,-0.01837905236907731
-0.210785536159601,-0.03385286783042394
-0.21599750623441394,-0.03917705735660848
-0.21159600997506234,-0.01938902743142145
-0.22273067331670826,-0.009576059850374075
-0.21448877805486288,-0.009837905236907737
-0.21694513715710723,-0.005249376558603497
-0.2100374064837905,-0.0058603491271820435
-0.19861596009975058,0.008316708229426435
-0.19743142144638404,0.0021446384039900263
-0.20610972568578545,-0.014301745635910232
-0.21941396508728173,-0.04104738154613466
-0.22701995012468823,-0.05290523690773068
-0.22881546134663344,-0.0646134663341646
-0.22977556109725683,-0.05605985037406484
-0.23498753117206983,-0.04709476309226933
-0.21967581047381546,-0.04768079800498753
-0.20406483790523694,-0.05298004987531172
-0.20334164588528686,-0.053117206982543644
-0.16765586034912722,-0.04319201995012469
-0.16203241895261844,-0.03824189526184539
-0.16155860349127177,-0.03834164588528678
-0.161072319201995,-0.043553615960099754
-0.17558603491271824,-0.06892768079800499
-0.19001246882793016,-0.0993640897755611
-0.2143142144638404,-0.11977556109725684
-0.2185411471321696,-0.11006234413965088
-0.2027182044887781,-0.09521197007481297
-0.18683291770573568,-0.09032418952618454
-0.16587281795511222,-0.09538653366583541
-0.14488778054862844,-0.0904488778054863
-0.12887780548628436,-0.08049875311720697
-0.13286783042394018,-0.08547381546134664
-0.12183291770573568,-0.09544887780548628
-0.12086034912718202,-0.10543640897755611
-0.13496259351620954,-0.11041147132169576
-0.13913965087281793,-0.13047381546134662
-0.13330423940149627,-0.14052369077306734
-0.13743142144638404,-0.140498753117207
-0.13154613466334164,-0.12541147132169575
-0.11557356608478803,-0.13529925187032418
-0.09456359102244388,-0.14021197007481298
-0.08857855361596012,-0.13517456359102245
-0.08264339152119698,-0.12504987531172068
-0.08174563591022443,-0.11988778054862842
-0.08591022443890273,-0.134713216957606
-0.08516209476309228,-0.14955112219451372
-0.08950124688279298,-0.16443890274314216
-0.10380299251870329,-0.15937655860349126
-0.10311720698254362,-0.1543516209476309
-0.10236907730673317,-0.14923940149625933
-0.09155860349127182,-0.1440773067331671
-0.08071072319201994,-0.15885286783042393
-0.07485037406483791,-0.14870324189526185
-0.06897755610972567,-0.14355361596009977
-0.06311720698254364,-0.12839152119700747
-0.057294264339152134,-0.1132418952618454
-0.05652119700748126,-0.11310473815461349
-0.05582294264339149,-0.12796758104738154
-0.060162094763092255,-0.1378927680798005
-0.07455112219451371,-0.13281795511221944
-0.08397755610972568,-0.12273067331670823
-0.08837905236907734,-0.10756857855361597
-0.08273067331670825,-0.10234413965087283
-0.06205735660847883,-0.0921072319201995
-0.04129675810473821,-0.06683291770573566
-0.015548628428927624,-0.04654613466334165
0.0001371571072318889,-0.01129675810473816
0.0158104738154613,-0.006072319201995018
0.021471321695760603,-0.010860349127182048
0.027094763092269325,-0.015623441396508727
0.032630922693266784,-0.0003740648379052386
0.018129675810473755,-9.975062344139835e-05
0.008591022443890262,0.01513715710723192
-0.0009226932668329191,0.01036159600997506
-0.020399002493765583,0.0006359102244389014
-0.019862842892768073,0.0009725685785536148
-0.029289276807980047,0.0013216957605984986
-0.013715710723192054,0.02173316708229426
-0.0031546134663341663,0.03706982543640897
0.0023316708229426664,0.01738154613466334
-0.0022693266832917725,0.0026184538653366562
0.013092269326683281,0.007892768079800494
-0.0015586034912718483,0.008167082294264334
-0.006209476309226913,0.01849127182044888
-0.010822942643391509,0.013827930174563591
-0.030448877805486274,0.009177057356608474
-0.03507481296758108,0.014588528678304239
-0.0296633416458853,0.0050498753117207
-0.02422693266832915,0.025536159600997504
-0.013852867830423943,0.02105985037406484
-0.023453865336658386,0.04150872817955112
-0.043079800498753096,0.03689526184538654
-0.0327182044887781,0.03716957605985037
-0.027356608478803,0.04243142144638403
-0.002019950124688308,0.017768079800498746
-0.0017331670822942624,0.01306733167082294
-0.016471321695760655,0.023354114713216953
-0.016221945137157134,0.013578553615960103
-0.02594763092269331,0.013827930174563588
-0.03567331670822943,-0.0009351620947630965
-0.04041147132169576,0.009401496259351619
-0.02516209476309228,0.019713216957605983
-0.024950124688279285,0.025049875311720697
-0.019775561097256922,0.035274314214463844
-0.024638403990024982,0.020486284289276808
-0.024538653366583563,0.01064837905236908
-0.019538653366583558,0.010785536159600997
-0.024513715710723194,0.005935162094763087
-0.029488778054862885,0.026047381546134667
-0.024476309226932724,0.031122194513715708
-0.014476309226932715,0.011172069825436406
-0.004413965087281813,0.0013216957605984986
-0.004314214463840393,0.01645885286783042
-0.009089775561097302,0.03165835411471322
-0.018852867830424003,0.05683291770573566
-0.023615960099750644,0.04694513715710722
-0.03826683291770577,0.031982543640897754
-0.03293017456359104,0.012019950124688275
-0.027593516209476365,-0.007942643391521204
-0.02728179551122195,-0.007855361596009983
-0.02694513715710728,-0.007793017456359103
-0.03158354114713213,0.007244389027431415
-0.04610972568578553,0.007306733167082288
-0.040573566084788015,0.012394014962593514
-0.04496259351620946,0.007556109725685781
-0.029289276807980047,0.03265586034912717
-0.01862842892768085,0.04266832917705735
-0.023017456359102295,0.03263092269326683
-0.027456359102244365,0.017531172069825428
-0.021895261845386538,0.002431421446384037
-0.03634663341645883,0.002369077306733164
-0.04091022443890274,0.01729426433915212
-0.040523690773067333,0.0272069825436409
-0.055162094763092306,0.02213216957605985
-0.05986284289276805,0.0020573566084788053
-0.029551122194513724,-0.007967581047381544
-0.029276807980049835,0.002019950124688287
-0.029064837905236895,0.012019950124688282
-0.03389027431421443,0.03695760598503741
-0.028728179551122168,0.04682044887780548
-0.028678304239401486,0.03172069825436409
-0.023640897755610957,0.021608478802992517
-0.028703241895261855,0.016546134663341643
-0.03880299251870323,0.01648379052369077
-0.03389027431421443,0.021396508728179556
-0.03400249376558606,0.0312718204488778
-0.01912718204488778,0.03620947630922693
-0.009214463840399034,0.04619700748129676
0.015673316708229412,0.04620947630922693
0.045586034912718176,0.07618453865336658
0.060523690773067296,0.09108478802992519
0.07042394014962594,0.10597256857855361
0.08528678304239401,0.06582294264339152
0.08513715710723196,0.060735660847880305
0.08997506234413963,0.04567331670822942
0.10476309226932665,0.06556109725685785
0.10956359102244392,0.0704364089775561
0.11435162094763093,0.06527431421446384
0.1291147132169576,0.03511221945137157
0.1439401496259352,0.02001246882793017
0.14381546134663342,0.009887780548628433
0.13872817955112215,0.01980049875311721
0.12876558603491267,0.024688279301745636
0.13903990024937657,0.03460099750623442
0.13463840399002497,0.019488778054862838
0.13568578553615956,0.009301745635910227
0.11730673316708226,0.009152119700748126
0.10961346633416455,0.008965087281795514
0.1027431421446384,0.008940149625935166
0.06155860349127179,0.004077306733167085
0.045835411471321696,-0.005486284289276805
0.020224438902743114,0.00027431421446384024
0.004276807980049813,-0.0037157107231920172
-0.002344139650872823,0.007418952618453864
-0.014875311720698225,0.02349127182044888
-0.01336658354114717,0.039301745635910226
-0.01761845386533667,0.02970074812967581
-0.037468827930174586,0.034713216957605986
-0.04766832917705738,0.009389027431421441
-0.06296758104738154,-0.001097256857855361
-0.06825436408977553,0.0034289276807980065
-0.09341645885286787,0.008117206982543632
-0.10850374064837914,-0.0071072319201995054
-0.08850374064837907,-0.002194513715710722
-0.0934788029925187,-0.007219451371571074
-0.09357855361596007,0.00275561097256858
-0.09377805486284291,0.022643391521197005
-0.08915211970074816,0.022443890274314215
-0.08463840399002492,0.027094763092269332
-0.08516209476309228,0.006695760598503735
-0.09069825436408979,-0.013728179551122197
-0.0912967581047382,-0.014127182044887783
-0.10692019950124693,0.0004987531172069778
-0.1325187032418953,0.015149625935162093
-0.13814214463840402,-0.010149625935162096
-0.1438029925187032,-0.020386533665835413
-0.15450124688279304,-0.03554862842892768
-0.1302369077306733,-0.02069825436408977
-0.08099750623441393,0.009139650872817956
-0.02179551122194512,0.03400249376558604
0.07241895261845388,0.038778054862842894
0.2016334164588528,0.0035411471321695753
0.35082294264339153,-0.03173316708229427
0.5650498753117207,-0.04195760598503741
0.8142643391521196,-0.03214463840399003
1.0935536159600998,0.012668329177057354
1.3479052369077307,0.10253117206982544
1.5473316708229428,0.18749376558603492
1.631870324189526,0.30754364089775565
1.5714713216957605,0.42256857855361596
1.4061346633416458,0.5324688279301746
1.130773067331671,0.5773067331670824
0.8004364089775562,0.5370947630922693
0.4651122194513716,0.44184538653366584
0.17481296758104733,0.28159600997506234
-0.030511221945137168,0.1113216957605985
-0.145785536159601,-0.01895261845386533
-0.1859850374064838,-0.09920199501246885
-0.17614713216957611,-0.1294139650872818
-0.1511471321695761,-0.1245635910224439
-0.10609725685785537,-0.09468827930174564
-0.0810224438902743,-0.0548503740648379
-0.08092269326683293,0.0049999999999999975
-0.11087281795511222,0.03977556109725685
-0.1458728179551122,0.034476309226932664
-0.17098503740648385,0.009139650872817956
-0.17614713216957611,-0.01123441396508728
-0.2013092269326684,-0.026583541147132163
-0.20642144638403997,-0.03192019950124689
-0.2064837905236908,-0.02224438902743143
-0.21144638403990035,-0.01250623441396509
-0.20135910224438908,-0.0276932668329177
-0.21123441396508735,-0.027880299251870327
-0.19104738154613465,-0.018092269326683293
-0.19084788029925187,-0.013329177057356603
-0.1756982543640898,0.016408977556109726
-0.19062344139650877,0.01609725685785536
-0.1906857855361596,0.0007356608478802998
-0.20596009975062346,-0.009650872817955115
-0.22155860349127188,-0.02001246882793018
-0.22258104738154622,-0.025336658354114715
-0.2341147132169576,-0.0156359102244389
-0.22624688279301752,-0.03589775561097257
-0.2239775561097257,-0.04625935162094763
-0.2222693266832918,-0.03687032418952619
-0.2010099750623442,-0.027905236907730675
-0.1949127182044888,-0.019376558603491273
-0.19867830423940147,-0.011284289276807982
-0.20204488778054863,-0.01345386533665836
-0.2047630922693267,-0.030735660847880306
-0.22170822942643398,-0.04296758104738155
-0.21788029925187036,-0.05996259351620947
-0.2283665835411472,-0.04658354114713217
-0.233354114713217,-0.05266832917705736
-0.22802992518703247,-0.07326683291770575
-0.22258104738154616,-0.07845386533665835
-0.20710723192019953,-0.06841645885286783
-0.19673316708229427,-0.058416458852867836
-0.18644638403990021,-0.043553615960099754
-0.16124688279301752,-0.038852867830423944
-0.16109725685785542,-0.054214463840399005
-0.16097256857855363,-0.06460099750623441
-0.17584788029925186,-0.07501246882793018
-0.18566084788029924,-0.07038653366583542
-0.20536159600997506,-0.09069825436408978
-0.20498753117206986,-0.11591022443890274
-0.18950124688279302,-0.11103491271820448
-0.1789650872817955,-0.11104738154613467
-0.17337905236907725,-0.10100997506234415
-0.157780548628429,-0.09603491271820448
-0.1321695760598504,-0.10112219451371571
-0.12155860349127184,-0.1111720698254364
-0.1109975062344139,-0.10118453865336659
-0.12048628428927682,-0.10618453865336659
-0.12,-0.10620947630922693
-0.11958852867830422,-0.12127182044887781
-0.11915211970074813,-0.13130922693266833
-0.12374064837905235,-0.16135910224438904
-0.11830423940149631,-0.14634663341645884
-0.11286783042394016,-0.15624688279301746
-0.09741895261845385,-0.1361720698254364
-0.0969825436408977,-0.13117206982543642
-0.08650872817955113,-0.13117206982543642
-0.08107231920199504,-0.14120947630922692
-0.07559850374064836,-0.1411720698254364
-0.07016209476309226,-0.1361221945137157
-0.06982543640897759,-0.14612219451371572
-0.07951371571072319,-0.15610972568578554
-0.08918952618453868,-0.17112219451371571
-0.09880299251870323,-0.19609725685785534
-0.10335411471321693,-0.18104738154613467
-0.0979426433915212,-0.17587281795511223
-0.0975810473815461,-0.14071072319201994
-0.09223192019950127,-0.1305486284289277
-0.08685785536159607,-0.1303865336658354
-0.07147132169576065,-0.12532418952618454
-0.061134663341645856,-0.1252493765586035
-0.0508354114713217,-0.10512468827930174
-0.04554862842892771,-0.09507481296758104
-0.04031172069825434,-0.0950498753117207
-0.035074812967581026,-0.12509975062344142
-0.04485037406483794,-0.13011221945137158
-0.03460099750623441,-0.1350498753117207
-0.029351620947630885,-0.0999002493765586
-0.029089775561097264,-0.09468827930174563
-0.013840399002493786,-0.06948877805486284
0.011371571072319175,-0.044376558603491274
0.016583541147132175,-0.039289276807980056
0.03178304239401497,-0.034239401496259356
0.04192019950124687,-0.014127182044887783
0.052057356608478766,-0.008977556109725688
0.0421945137157107,-0.018827930174563592
0.03736907730673317,-0.008703241895261848
0.002556109725685818,-0.023491271820448884
0.0027431421446383886,-0.013216957605985038
-0.007082294264339206,0.007144638403990025
-0.036920199501246864,0.04254364089775561
-0.03679551122194513,0.0378927680798005
-0.036708229426433925,0.043117206982543635
-0.02155860349127181,0.018241895261845387
-0.0014339152119700604,0.023403990024937656
0.0036658354114713076,0.02861596009975062
-0.0012967581047381715,0.023865336658354115
-0.016371571072319235,0.014114713216957606
-0.021433915211970078,-0.005660847880299254
-0.02652119700748129,-0.010473815461346635
-0.031596009975062345,0.004812967581047382
-0.036608478802992506,0.015162094763092271
-0.03657107231920198,0.03052369077306733
-0.041533665835411515,0.0408354114713217
-0.0464339152119701,0.03109725685785536
-0.03140897755610972,0.0263216957605985
-0.016408977556109816,0.011583541147132167
-0.016471321695760655,0.02685785536159601
-0.001596009975062429,0.0321072319201995
-0.02179551122194512,0.022331670822942646
-0.03193266832917707,0.017493765586034913
-0.03208229426433917,0.0027057356608478807
-0.03224438902743143,0.01795511221945137
-0.04241895261845385,0.038291770573566086
-0.032568578553615946,0.03364089775561097
-0.037755610972568576,0.04390274314214464
-0.02294264339152119,0.024114713216957604
-0.01814214463840408,0.0192643391521197
-0.02340399002493765,0.014426433915211971
-0.01869077306733169,0.02458852867830424
-0.018965087281795523,0.014713216957605985
-0.024264339152119674,0.004788029925187037
-0.01955112219451377,-0.005137157107231921
-0.02977556109725682,-0.010074812967581045
-0.02992518703241892,0.020062344139650874
-0.0350374064837905,0.030286783042394017
-0.03509975062344134,0.03552369077306733
-0.030112219451371547,0.01564837905236908
-0.03512468827930171,0.0206857855361596
-0.015124688279301746,0.025635910224438906
-0.020074812967581068,0.030648379052369078
-0.02501246882793018,0.05067331670822943
-0.029900249376558552,0.04564837905236908
-0.03472568578553614,0.02052369077306733
-0.049513715710723216,0.010349127182044887
-0.04430174563591016,0.00011221945137157227
-0.03910224438902743,0.014975062344139648
-0.038927680798005015,0.024875311720698255
-0.023728179551122164,0.03483790523690773
-0.01851620947630922,0.03970074812967581
-0.013304239401496276,0.019513715710723193
-0.0031421446384040097,0.0343142144638404
-0.038004987531172096,0.029114713216957605
-0.04288029925187031,0.04394014962593516
-0.042905236907730626,0.038765586034912716
-0.0430049875311721,0.023566084788029924
-0.04320448877805483,0.0033416458852867856
-0.048441396508728196,0.008104738154613466
-0.038740648379052334,0.007955112219451369
-0.039064837905236904,0.017867830423940148
-0.04937655860349127,0.0328428927680798
-0.04970074812967584,0.032793017456359104
-0.045049875311720666,0.03266832917705736
-0.04041147132169576,0.03745635910224439
-0.03581047381546132,0.047219451371571075
-0.05122194513715711,0.04199501246882793
-0.031695760598503764,0.03177057356608479
-0.047219451371571075,0.011521197007481294
-0.05268079800498754,0.006271820448877806
-0.028117206982543608,0.011009975062344139
-0.03357855361596007,0.04579800498753117
0.0009600997506234443,0.07069825436408977
0.025511221945137164,0.09566084788029926
0.03007481296758102,0.10064837905236909
0.039638403990024884,0.10552369077306734
0.05418952618453865,0.11029925187032419
0.0637281795511222,0.12506234413965087
0.06319201995012469,0.10982543640897756
0.06760598503740645,0.08463840399002494
0.07698254364089774,0.05945137157107232
0.091359102244389,0.03925187032418953
0.1057356608478803,0.024002493765586035
0.11514962593516209,0.038778054862842894
0.12972568578553617,0.023678304239401496
0.12448877805486286,0.04367830423940149
0.1294887780548628,0.033703241895261846
0.13480049875311723,0.0436284289276808
0.12547381546134662,0.04340399002493765
0.12167082294264336,0.03809226932668329
0.10345386533665832,0.03780548628428928
0.08089775561097257,0.022593516209476305
0.06397755610972566,-0.017306733167082294
0.03759351620947632,-0.03695760598503741
0.02144638403990029,-0.031321695760598504
-0.004837905236907747,0.004576059850374065
-0.0015336658354114796,0.005735660847880299
-0.013902743142144625,0.017007481296758106
-0.017057356608478846,0.023179551122194515
-0.026022443890274305,0.03418952618453865
-0.02068578553615963,0.05480049875311721
-0.025897755610972573,0.055
-0.04140897755610973,0.039837905236907736
-0.057082294264339195,0.024438902743142147
-0.08778054862842893,0.008965087281795512
-0.10339152119700751,0.0035162094763092275
-0.1138902743142145,0.01814214463840399
-0.12430174563591029,0.007867830423940151
-0.11970074812967585,0.01273067331670823
-0.11513715710723194,0.012668329177057357
-0.09566084788029927,0.007605985037406485
-0.08125935162094766,0.032518703241895264
-0.06683291770573574,0.03736907730673317
-0.07250623441396509,0.037132169576059845
-0.07320448877805491,0.02684538653366584
-0.09396508728179548,0.006546134663341646
-0.09978802992518704,-0.013740648379052367
-0.12064837905236908,-0.01906483790523691
-0.13650872817955118,-0.01938902743142145
-0.14234413965087278,-0.019713216957605986
-0.13815461346633423,-0.015024937655860349
-0.11391521197007481,-0.015261845386533664
-0.05473815461346632,-0.005448877805486285
0.024426433915211987,0.004364089775561096
0.15854114713216957,0.009139650872817952
0.3425561097256858,-0.016134663341645886
0.5665336658354114,-0.031496259351620946
0.8103990024937656,-0.04184538653366583
1.054214463840399,0.007755610972568578
1.2779675810473816,0.11233167082294265
1.4516832917705735,0.2670324189526185
1.5154613466334164,0.42678304239401493
1.4543142144638403,0.5865835411471321
1.2782294264339151,0.6964214463840399
1.0171945137157108,0.7462344139650873
0.7061970074812969,0.7310099750623441
0.40519950124688275,0.6408104738154613
0.139214463840399,0.47557356608478807
-0.05679551122194515,0.2703491271820449
-0.17779301745635906,0.08007481296758105
-0.2237406483790524,-0.0702493765586035
-0.22961346633416463,-0.14554862842892768
-0.1903865336658354,-0.130785536159601
-0.15609725685785542,-0.09097256857855363
-0.12673316708229426,-0.036122194513715705
-0.12229426433915214,-0.006271820448877804
-0.12279301745635912,0.01351620947630923
-0.12826683291770574,0.03826683291770573
-0.14872817955112222,0.02802992518703242
-0.1741271820448878,0.0128428927680798
-0.1845635910224439,-0.0024314214463840396
-0.20501246882793017,-0.017805486284289275
-0.21046134663341648,-0.02819201995012469
-0.2158728179551122,-0.043553615960099754
-0.21627182044887783,-0.023852867830423938
-0.21663341645885292,-0.004102244389027431
-0.2119077306733167,-0.004351620947630922
-0.2071197007481297,-0.019650872817955113
-0.19726932668329178,-0.009975062344139649
-0.19743142144638404,-0.005336658354114713
-0.18761845386533665,-0.0006733167082294258
-0.19779301745635908,-0.011022443890274312
-0.19799251870324186,-0.006408977556109726
-0.1931920199501247,-0.011857855361596009
-0.183428927680798,-0.03234413965087282
-0.1836658354114713,-0.04281795511221945
-0.1838778054862843,-0.02825436408977556
-0.1840274314214464,-0.023566084788029927
-0.18407730673316708,-0.008790523690773067
-0.20405236907730673,-0.029002493765586033
-0.19405236907730672,-0.0392643391521197
-0.1741147132169576,-0.024538653366583542
-0.16931421446384048,-0.024875311720698255
-0.16983790523690778,-0.025224438902743142
-0.1908229426433915,-0.02059850374064838
-0.20730673316708226,-0.03604738154613467
-0.20435162094763093,-0.0664713216957606
-0.20695760598503743,-0.06694513715710723
-0.1951496259351621,-0.06746882793017457
-0.2038653366583541,-0.063142144638404
-0.18791770573566086,-0.0491147132169576
-0.1720448877805486,-0.06043640897755611
-0.1759600997506235,-0.07210723192019951
-0.17437655860349127,-0.05399002493765586
-0.16711970074812965,-0.04599750623441397
-0.17910224438902744,-0.03290523690773067
-0.18033665835411472,-0.03961346633416459
-0.17599750623441396,-0.060947630922693265
-0.17614713216957606,-0.091857855361596
-0.17602244389027433,-0.1072568578553616
-0.17576059850374065,-0.1174064837905237
-0.16044887780548628,-0.0923067331670823
-0.15517456359102244,-0.08209476309226932
-0.1549625935162095,-0.07194513715710724
-0.13480049875311728,-0.07688279301745636
-0.1296259351620948,-0.08692019950124688
-0.11942643391521202,-0.10704488778054863
-0.12421446384039903,-0.10720698254364089
-0.12895261845386535,-0.12731920199501245
-0.13375311720698257,-0.1373940149625935
-0.13850374064837906,-0.14741895261845386
-0.13826683291770575,-0.17239401496259352
-0.13806733167082297,-0.16731920199501246
-0.11783042394014964,-0.13726932668329175
-0.13759351620947635,-0.11719451371571073
-0.1273192019950125,-0.13216957605985039
-0.1169576059850374,-0.15208229426433917
-0.09658354114713219,-0.15194513715710722
-0.06627182044887786,-0.15188279301745636
-0.06600997506234413,-0.13684538653366582
-0.060773067331670816,-0.12688279301745636
-0.05056109725685787,-0.14192019950124687
-0.06533665835411478,-0.1569077306733167
-0.09012468827930176,-0.171857855361596
-0.0948877805486284,-0.16679551122194514
-0.11465087281795516,-0.1617082294264339
-0.09941396508728179,-0.14663341645885286
-0.09413965087281795,-0.14653366583541147
-0.06885286783042394,-0.14148379052369078
-0.058553615960099725,-0.13629675810473815
-0.033179551122194506,-0.1461720698254364
-0.02790523690773067,-0.1311346633416459
-0.022643391521196987,-0.14113466334164587
-0.017394014962593463,-0.1461720698254364
-0.017144638403989998,-0.15610972568578554
-0.021932668329177063,-0.15100997506234415
-0.006708229426433898,-0.13089775561097258
-0.0015336658354114796,-0.12073566084788029
-0.0013092269326683281,-0.1006857855361596
0.013927680798004993,-0.10559850374064837
0.02917705735660847,-0.10049875311720699
0.0244389027431422,-0.07532418952618454
0.049700748129675815,-0.05018703241895262
0.054950124688279284,-0.0400997506234414
0.05518703241895259,-0.03507481296758105
0.055374064837905274,-0.035099750623441395
0.05553615960099753,-0.05501246882793018
0.04569825436408978,-0.04486284289276808
0.040835411471321664,-0.03972568578553616
0.04099750623441398,-0.009600997506234412
0.041134663341645866,0.01051122194513716
0.03634663341645883,0.005660847880299254
0.036533665835411455,0.005835411471321697
0.021695760598503755,0.021097256857855365
0.011807980049875322,0.03134663341645885
0.011882793017456317,0.03649625935162095
0.011920199501246898,0.05158354114713217
0.011907730673316685,0.02163341645885287
0.01187032418952616,0.011758104738154616
0.011845386533665847,-0.003054862842892766
0.0018578553615959947,0.022206982543640903
0.0019201995012468887,0.03249376558603491
0.001982543640897727,0.037743142144638406
0.0020822942643391462,0.038004987531172076
-0.0028927680798004896,0.028266832917705736
0.01211970074812968,0.02356608478802993
0.02209476309226932,0.02392768079800499
0.032107231920199486,0.039289276807980056
0.027144638403990062,0.03953865336658355
0.042157107231920204,0.014775561097256858
0.03715710723192023,0.00497506234413965
0.032107231920199486,-0.004775561097256857
0.03200748129675812,-0.00445137157107232
0.021907730673316694,0.030885286783042396
0.01684538653366585,0.04125935162094763
0.016758104738154644,0.04164588528678305
0.016720698254364064,0.042057356608478806
0.016683291770573594,0.04748129675810474
0.0216832917705736,0.04288029925187033
0.01664588528678307,0.04821695760598504
0.001596009975062318,0.04849127182044888
0.011546134663341645,0.03872817955112219
0.011458852867830382,0.014027431421446385
0.01143391521197007,-0.01062344139650873
0.011446384039900226,-0.015174563591022443
0.011496259351620963,0.010361596009975061
0.011608478802992539,0.030947630922693273
0.016783042394014958,0.03653366583541147
0.031995012468827966,0.052107231920199504
0.027244389027431426,0.04763092269326684
0.03748129675810474,0.023092269326683294
0.0327182044887781,0.0184788029925187
0.022967581047381558,0.023802992518703242
0.033204488778054875,0.029039900249376558
0.0184164588528678,0.009226932668329177
0.003640897755610939,-0.005673316708229427
0.0038154613466334086,-0.01054862842892768
0.00897755610972567,-0.00543640897755611
0.014152119700748145,0.019738154613466334
0.019314214463840407,0.04492518703241895
0.034451371571072364,0.045037406483790524
0.04956359102244387,0.060124688279301744
0.04961346633416455,0.025149625935162095
0.03462593516209478,0.010037406483790524
0.024563591022443876,0.014887780548628429
0.019501246882792977,0.024713216957605987
0.01936408977556109,0.02958852867830424
0.014264339152119665,0.029413965087281797
-0.0008852867830424493,0.029251870324189525
-0.011059850374064817,-0.000897755610972567
-0.021259351620947664,-0.0009725685785536146
-0.006408977556109807,-0.005947630922693266
-0.0015960099750623735,0.009077306733167083
0.023204488778054866,0.024064837905236912
0.04298004987531176,0.02400249376558604
0.03268079800498752,0.018915211970074813
0.03233167082294264,0.018840399002493766
0.021957605985037376,0.01876558603491272
0.01654613466334165,0.023653366583541148
0.0011845386533665403,0.02846633416458853
0.0008354114713216565,0.023279301745635913
0.005523690773067302,0.008092269326683292
-0.009725685785536231,0.013029925187032419
0.005074812967580999,0.03300498753117207
0.009887780548628433,0.04798004987531172
