MLII,V1
0.164885515,0.258612651
0.172258938,0.2585997
0.172313556,0.258651505
0.182108374,0.269168005
0.177289857,0.258923483
0.174935217,0.248717816
0.179869038,0.243679739
0.187212118,0.249028648
0.187242461,0.26998394
0.189675994,0.285706885
0.187224255,0.2805911
0.192073115,0.270255919
0.189609239,0.244340258
0.19685522,0.259933689
0.199203792,0.280759467
0.201503814,0.291263016
0.198948908,0.317359996
0.201273205,0.317502461
0.201218587,0.312477335
0.208488843,0.312645703
0.220632233,0.328355696
0.227890351,0.338872196
0.237563797,0.3441693
0.2399063,0.338962856
0.244615581,0.318175931
0.246879191,0.302504792
0.249173145,0.307659431
0.253949181,0.307698285
0.261255849,0.3025825
0.26143184,0.276705693
0.256947099,0.255983526
0.260060322,0.266409366
0.261061652,0.276835207
0.262402826,0.287338756
0.251873699,0.303243019
0.243990509,0.293451795
0.243505016,0.273506709
0.235682512,0.264324198
0.227647605,0.245091437
0.21443613,0.257252759
0.212979652,0.274542817
0.211098367,0.281212765
0.213774646,0.271913692
0.201625187,0.293322282
0.194221421,0.298774802
0.1867509,0.319484018
0.181713911,0.288076983
0.171815925,0.277430969
0.174103811,0.261643268
0.166663632,0.230365746
0.166517984,0.235572191
0.163920598,0.240869295
0.1539862,0.246140496
0.153755591,0.251411698
0.165662303,0.241050614
0.165389214,0.246192302
0.174844187,0.256540434
0.172107221,0.272069108
0.164503189,0.272004352
0.166609014,0.266707248
0.151625491,0.240597316
0.151249234,0.235326115
0.145975568,0.224900275
0.145568967,0.230145573
0.132994702,0.219810392
0.139900838,0.225055691
0.158992845,0.219952857
0.195137789,0.220017614
0.255605925,0.235649899
0.335572669,0.256475677
0.43014668,0.235701704
0.549068157,0.225327669
0.672868838,0.235701704
0.79421778,0.287623685
0.898586609,0.391467648
0.968916319,0.516111485
0.978456254,0.651168212
0.924760743,0.74474175
0.810251182,0.822670051
0.656805093,0.812373724
0.491209545,0.7605165
0.342660865,0.641143864
0.220868911,0.49053256
0.147765823,0.324288971
0.111165729,0.178806403
0.103780169,0.095658706
0.106140878,0.095645755
0.12557273,0.142361291
0.142589255,0.194283272
0.147425978,0.225483086
0.144974239,0.241115371
0.147401703,0.256799461
0.142528568,0.236077294
0.13277623,0.246477232
0.120590359,0.235999586
0.110850159,0.22552194
0.105958818,0.220134176
0.105940612,0.194089002
0.105958818,0.20965653
0.10354956,0.220030565
0.101116027,0.225185204
0.098621807,0.230300989
0.093572681,0.209475211
0.1029609,0.23021033
0.107239306,0.230236233
0.111226416,0.251010206
0.110030889,0.240519608
0.10848945,0.235002331
0.106638508,0.208477957
0.094895649,0.197184375
0.088013788,0.185592913
0.078844041,0.184090556
0.074850863,0.192742061
0.080949867,0.18059369
0.092340743,0.184258923
0.094373745,0.198673781
0.0991073,0.208309589
0.096740522,0.213153396
0.089597708,0.207869243
0.092201164,0.192340569
0.092328606,0.187121173
0.094841031,0.171475936
0.099738441,0.17657877
0.09734132,0.171191007
0.092504597,0.165751438
0.090143888,0.149989639
0.095168739,0.149834223
0.095375074,0.155001813
0.100484886,0.180982231
0.108028231,0.170543439
0.115541234,0.170478682
0.1254817,0.165194529
0.125688034,0.133929959
0.12103944,0.139045744
0.116415121,0.12868466
0.114236471,0.139149355
0.112100303,0.128930736
0.10998234,0.1343185
0.117604578,0.118945242
0.125245022,0.119165415
0.140192134,0.124604984
0.145405113,0.135225095
0.148178491,0.119838885
0.14605446,0.10440087
0.136599487,0.094143397
0.12711417,0.083950681
0.129796518,0.094583743
0.12516613,0.100062167
0.127824203,0.095179506
0.130506551,0.080026421
0.138055965,0.059692794
0.148044981,0.070533078
0.155600464,0.076166917
0.160722413,0.086968347
0.1658565,0.087330985
0.166111384,0.077332539
0.166354131,0.067282288
0.161717674,0.052038543
0.152183808,0.078329793
0.147510939,0.068344299
0.14528374,0.068693985
0.145514349,0.074314873
0.145757096,0.085129255
0.15330651,0.095917733
0.158422391,0.106680309
0.16594753,0.091449516
0.163720332,0.086605709
0.166354131,0.076568409
0.166554396,0.087279179
0.169176058,0.098002901
0.164509258,0.124345957
0.162251716,0.140314977
0.169716169,0.145974719
0.174753157,0.146492773
0.182254022,0.157423717
0.184875683,0.178767549
0.187503414,0.210485417
0.187673336,0.205822929
0.187849327,0.216753872
0.188007112,0.222452469
0.18085823,0.228164016
0.17854607,0.244288453
0.178685649,0.255232347
0.176397764,0.240195824
0.16196042,0.235611045
0.169424873,0.236245661
0.17931679,0.247344972
0.179480644,0.263611874
0.182102305,0.285033414
0.184699692,0.285603274
0.182423945,0.254947417
0.180117853,0.250246076
0.177805694,0.245570637
0.165753333,0.251295135
0.173175305,0.236284515
0.166002148,0.231660882
0.161286799,0.237437186
0.161432447,0.238058851
0.166433023,0.254312801
0.176312803,0.270592654
0.174012781,0.286885458
0.176561618,0.271939595
0.176658717,0.251709579
0.174316214,0.236647153
0.169546246,0.247552194
0.159903144,0.253224887
0.164843034,0.258897581
0.164921927,0.238563954
0.167434352,0.223384966
0.172398517,0.223786458
0.17492308,0.255413666
0.172580577,0.261047506
0.17755081,0.261423095
0.182527112,0.261695073
0.182630279,0.246334767
0.192467578,0.241374398
0.190112938,0.246813967
0.18774616,0.247111848
0.178109127,0.231868103
0.173339159,0.221753095
0.175906203,0.222038025
0.180955329,0.232735844
0.181179869,0.238291975
0.18629575,0.264660934
0.193851233,0.254675439
0.196551787,0.260218619
0.189518209,0.250064757
0.192212694,0.245065534
0.192479716,0.260840284
0.187916083,0.266240999
0.188219516,0.261202922
0.183631608,0.235377921
0.183916835,0.230339844
0.176907532,0.225314718
0.177223102,0.235883023
0.184827134,0.241322592
0.187539826,0.262355592
0.190246448,0.246956432
0.195368398,0.241931306
0.19558687,0.231622028
0.195756792,0.247254313
0.198335973,0.252564368
0.191181022,0.237152256
0.188899206,0.237333575
0.186574909,0.221999171
0.191557279,0.243032171
0.189239051,0.26405222
0.194221421,0.2590789
0.196758121,0.259260219
0.201722286,0.259441538
0.213950638,0.259532197
0.21887839,0.269970989
0.221348335,0.290770865
0.221348335,0.290796767
0.226215401,0.280474538
0.223812211,0.280552246
0.226270019,0.265088328
0.233625236,0.285991815
0.240980453,0.291340724
0.248323532,0.296676682
0.262991486,0.302012641
0.267882826,0.281342278
0.280068697,0.260633062
0.277647302,0.245039631
0.275231975,0.250246076
0.272780236,0.255413666
0.267901032,0.234678547
0.258197244,0.229601616
0.25830648,0.229692276
0.253706435,0.235015283
0.249300587,0.245570637
0.245149623,0.23527431
0.238880696,0.230171476
0.242643266,0.235494483
0.229668469,0.235714656
0.224255224,0.24655494
0.2092717,0.242112625
0.196752053,0.23795524
0.191399494,0.234043931
0.19064698,0.214785267
0.184645074,0.221519971
0.183085429,0.222918717
0.181143457,0.244819458
0.17161566,0.250751179
0.176543412,0.23546858
0.176519138,0.230223281
0.171603522,0.21960317
0.16667577,0.240079262
0.156899157,0.239872041
0.159302347,0.239755478
0.154398869,0.224123193
0.149495391,0.198129824
0.156741372,0.208555665
0.161559889,0.2189297
0.161468859,0.229316687
0.156492557,0.224071388
0.156334772,0.234406569
0.158586245,0.198013262
0.148645778,0.187496762
0.153276167,0.187419054
0.167586069,0.208089416
0.189166227,0.213166347
0.239942712,0.197521111
0.310163186,0.181888826
0.407201073,0.166386054
0.523743635,0.171696109
0.650056742,0.213451277
0.786110049,0.275928612
0.900267628,0.374721546
0.975494748,0.499417189
0.987413597,0.639680361
0.931181386,0.769517692
0.811659111,0.852600632
0.667807575,0.852600632
0.497235725,0.764272393
0.346186757,0.618828679
0.234116797,0.457908097
0.151279577,0.302219862
0.114709827,0.182911983
0.109788143,0.105087292
0.124365066,0.105087292
0.146254726,0.131041807
0.160868061,0.167344454
0.163325869,0.219292338
0.160916611,0.240066311
0.143894017,0.240066311
0.121986151,0.219227581
0.104963558,0.177614879
0.095241563,0.17236958
0.095271906,0.193195358
0.102614986,0.20363415
0.105127412,0.198492462
0.112543315,0.203711858
0.110225087,0.214034088
0.107912927,0.203543491
0.110449627,0.208672227
0.103240058,0.203426928
0.098439747,0.192949282
0.100940036,0.182484588
0.096176137,0.171968088
0.093888252,0.171903331
0.089215383,0.17705797
0.089415649,0.197883749
0.094452637,0.208283686
0.099398596,0.197818992
0.11152378,0.197689478
0.108871775,0.197521111
0.110886571,0.197430451
0.11265862,0.1974175
0.104399172,0.181772263
0.100709426,0.165997513
0.094325195,0.149911931
0.092589558,0.149160752
0.088317221,0.163718075
0.088936224,0.183196912
0.087303755,0.166101124
0.085932237,0.164378594
0.094640766,0.152204321
0.096400677,0.155701186
0.098464022,0.14913485
0.09833658,0.168872714
0.098372992,0.147541833
0.098524709,0.136960576
0.096279304,0.126599492
0.098913103,0.137064187
0.103980435,0.137154846
0.104186769,0.157889965
0.104387035,0.15257991
0.099726303,0.152359737
0.10481791,0.136533181
0.105066725,0.125900119
0.110206881,0.125692897
0.115365242,0.130756877
0.113253348,0.120292183
0.113587125,0.104672849
0.11392697,0.089079418
0.119152087,0.073537792
0.121955808,0.078847847
0.122338134,0.078938507
0.127593594,0.094661452
0.127981988,0.089649277
0.135640638,0.079469513
0.131119486,0.064096254
0.131441125,0.07466456
0.134196297,0.074742268
0.134475455,0.06443299
0.137206353,0.043762628
0.135100527,0.02838937
0.128145842,0.039061286
0.138231956,0.049759105
0.138590007,0.076011501
0.143809056,0.081386313
0.141721436,0.076374139
0.144531226,0.066194374
0.149732069,0.050834067
0.147632312,0.071828213
0.143074748,0.071996581
0.143353906,0.066945553
0.146060529,0.051494586
0.14147869,0.03613428
0.141776054,0.031251619
0.142073419,0.047194737
0.156996256,0.083885924
0.159769634,0.094518987
0.167410078,0.105087292
0.165310321,0.110526861
0.170486889,0.100424804
0.173217786,0.111096721
0.180809681,0.132103818
0.173782171,0.153033207
0.178934465,0.142814588
0.17678009,0.148254157
0.177041042,0.164171372
0.172477409,0.180101539
0.182514974,0.216818629
0.185239803,0.232735844
0.197723038,0.23824017
0.200472142,0.243757447
0.191023237,0.228500751
0.191278121,0.249572605
0.184226337,0.244638139
0.177174553,0.250077708
0.167713511,0.239949749
0.1679866,0.229834741
0.168277896,0.225042739
0.168581329,0.225470134
0.171312227,0.257123245
0.176452382,0.278363467
0.179146868,0.278790862
0.17211329,0.268844221
0.172356036,0.264078123
0.177471917,0.248912086
0.177690389,0.254481169
0.175463191,0.260011397
0.165911118,0.265515723
0.158804717,0.255478423
0.159023188,0.240338289
0.159247729,0.251269233
0.15706908,0.246645599
0.162209235,0.262770036
0.167349391,0.284023209
0.174910942,0.274115422
0.172726225,0.259014143
0.172944696,0.243848107
0.178030234,0.239069057
0.168496368,0.239444646
0.161402103,0.265787701
0.156729235,0.245441123
0.15208064,0.251074962
0.157178315,0.235973683
0.164721661,0.24168523
0.165012957,0.262977257
0.172623057,0.279049889
0.177805694,0.284709631
0.178109127,0.274775942
0.178400422,0.259596954
0.181094908,0.249611459
0.178916259,0.255141688
0.176731541,0.260697819
0.174565029,0.266228047
0.167531451,0.261345387
0.170274486,0.25124333
0.173041795,0.261889344
0.170972382,0.282857587
0.168921174,0.277832461
0.171718827,0.283142517
0.176950012,0.262446252
0.179753734,0.226104751
0.184954576,0.236478786
0.182842682,0.236452883
0.185579648,0.241633425
0.178564276,0.25200746
0.171530698,0.241555717
0.176664785,0.236297467
0.179383545,0.251877946
0.179638429,0.262316738
0.18475431,0.267600891
0.18253318,0.288426669
0.182727378,0.283233176
0.175608838,0.267652696
0.175778761,0.246788064
0.180791475,0.2519168
0.185785983,0.241478009
0.178606757,0.246684453
0.164102657,0.257058488
0.161766223,0.251864995
0.164308992,0.241478009
0.171718827,0.267432523
0.18398359,0.277884267
0.196218011,0.293490649
0.203591433,0.298632337
0.201224656,0.303709268
0.211007337,0.293128011
0.203767425,0.292972595
0.211134779,0.29808838
0.206340537,0.308462415
0.216135355,0.298062477
0.221069177,0.287688442
0.230870064,0.297984769
0.243080209,0.292713568
0.262633435,0.313422784
0.272452528,0.323796819
0.272592107,0.308203388
0.277714057,0.282158214
0.268416868,0.250841838
0.259362426,0.235080039
0.250611418,0.219344143
0.249482647,0.229718179
0.248699789,0.24024763
0.248196091,0.240597316
0.255187188,0.236077294
0.257341562,0.242319847
0.259350289,0.248912086
0.256200654,0.255711547
0.245386301,0.262459203
0.236568536,0.263741387
0.222525655,0.238680516
0.215486009,0.234018028
0.200945497,0.228967
0.188765695,0.249624411
0.179013357,0.264919961
0.174170566,0.264622079
0.166942791,0.264363052
0.167058095,0.243459566
0.164758073,0.243446615
0.16486124,0.238330829
0.169819336,0.248769621
0.16739794,0.248743719
0.16735546,0.2485624
0.164836965,0.232774698
0.167191606,0.222284101
0.159818183,0.222258198
0.154872224,0.227399886
0.154823675,0.232554525
0.147492733,0.253315547
0.149920197,0.227296275
0.152371936,0.232476817
0.159672535,0.237605554
0.157208659,0.237450137
0.149829167,0.242384603
0.139979731,0.216080402
0.134960948,0.210550174
0.137206353,0.184297778
0.151601216,0.184077605
0.185458275,0.204709113
0.224200606,0.214940683
0.284893283,0.220004662
0.367487756,0.19914003
0.459810294,0.173107807
0.581323089,0.188610579
0.702787336,0.224822566
0.814499244,0.328498161
0.911603886,0.437315443
0.960025731,0.55133917
0.954897713,0.670634098
0.886516043,0.758806921
0.781643515,0.831386313
0.642719731,0.846850231
0.49653176,0.794772833
0.3649814,0.690799358
0.262651641,0.54531679
0.194415618,0.353118686
0.148111736,0.212751904
0.133474126,0.134655235
0.135883385,0.124009221
0.140738313,0.128995493
0.145629654,0.165194529
0.145666066,0.191032482
0.145720684,0.222102782
0.138492909,0.242786095
0.131295477,0.253108325
0.116803515,0.263404652
0.107208962,0.247746464
0.102493613,0.232088276
0.102651398,0.21635238
0.10767018,0.216093353
0.1029609,0.215782521
0.100679083,0.21548464
0.095969802,0.220380252
0.093694055,0.209682433
0.093857908,0.199036419
0.098913103,0.193583899
0.101546902,0.2088924
0.111487368,0.2294462
0.10926017,0.255193493
0.111924312,0.249818681
0.112148852,0.239185619
0.109933791,0.207726778
0.10282132,0.191796612
0.102918419,0.201859815
0.102924488,0.211987774
0.102754565,0.22218049
0.102366171,0.216831581
0.087109558,0.201121587
0.091017775,0.200940268
0.097037887,0.185023053
0.097899636,0.200020722
0.103428187,0.214655753
0.104010778,0.218515257
0.102256935,0.196005802
0.10558863,0.173237321
0.101935296,0.165932757
0.093785084,0.158809511
0.086023267,0.172822877
0.08347443,0.182083096
0.081168339,0.165816194
0.081447497,0.155209035
0.091521474,0.160441382
0.094300921,0.16060975
0.10436276,0.176358597
0.104623713,0.171242812
0.109727456,0.171152153
0.1148312,0.139822825
0.10291235,0.134499819
0.108052506,0.129228617
0.113259417,0.124099881
0.113647811,0.129409936
0.111651222,0.12953945
0.121840503,0.129681915
0.124717049,0.124656789
0.122714391,0.130070455
0.125548455,0.135510024
0.121057646,0.140884837
0.12140356,0.141027301
0.119303803,0.115124592
0.122071113,0.09445423
0.127271955,0.073822722
0.130063539,0.074029944
0.137722189,0.084663006
0.135664913,0.095270165
0.140896098,0.105851422
0.138832754,0.106058644
0.146521747,0.095878879
0.151771139,0.106460136
0.154580929,0.111847899
0.150053708,0.106848676
0.147923608,0.075843133
0.148214903,0.055198674
0.138772067,0.029425478
0.136623761,0.034813241
0.136921126,0.050639797
0.142115899,0.066492255
0.149774549,0.071996581
0.155011804,0.082681448
0.15294239,0.083005232
0.158167507,0.083290162
0.160922679,0.104310211
0.163647508,0.104582189
0.159053532,0.094402424
0.156868814,0.079029166
0.157129766,0.063642957
0.150102257,0.063876081
0.147929676,0.084922033
0.148208835,0.116393825
0.153379334,0.121975859
0.163422967,0.132751386
0.173478738,0.133126975
0.178679581,0.143863648
0.18874142,0.154574418
0.189056991,0.170491633
0.196654954,0.186408848
0.194488442,0.202326063
0.189870191,0.192301715
0.190094732,0.197909651
0.180579072,0.193195358
0.185658541,0.21960317
0.183449548,0.240869295
0.176403833,0.246516086
0.181525783,0.252111071
0.186647732,0.257719007
0.189330081,0.258159353
0.192018497,0.268947832
0.194682639,0.279775164
0.187576238,0.275060871
0.182903369,0.254792001
0.180645827,0.234561985
0.175948683,0.2299254
0.173709348,0.240843392
0.166615083,0.256993732
0.164412159,0.252396001
0.167058095,0.268559291
0.169691894,0.263883852
0.174777432,0.259169559
0.174989835,0.254416412
0.175165826,0.270424286
0.18017854,0.250090659
0.175438916,0.245376366
0.170711429,0.240636171
0.170863146,0.230741336
0.17347267,0.246826918
0.17369721,0.278570688
0.171506424,0.289566389
0.174176634,0.295420401
0.176858983,0.290861524
0.179492781,0.270631508
0.177271651,0.255491374
0.177465849,0.250712325
0.17523865,0.251062011
0.177860312,0.256605191
0.178078783,0.241387349
0.166159933,0.236556494
0.181052427,0.236945034
0.181380135,0.242514117
0.186580977,0.253198985
0.184499427,0.269012589
0.184827134,0.26396156
0.180263501,0.258858727
0.178103058,0.243278247
0.175942615,0.243278247
0.178624963,0.258845775
0.176446314,0.253665233
0.176713335,0.24330415
0.179432095,0.232994871
0.177301995,0.233072579
0.180045029,0.253937212
0.185203391,0.274788893
0.178181951,0.280073046
0.185713159,0.269776719
0.183473823,0.269802621
0.176312803,0.25420919
0.173976369,0.243796301
0.17161566,0.249015697
0.174109879,0.259454489
0.171724895,0.243951717
0.16690031,0.249248821
0.176701197,0.233733098
0.164606356,0.244158939
0.174443656,0.254623634
0.17940782,0.275501217
0.186811586,0.280798322
0.184475152,0.2600373
0.189433248,0.239237424
0.194361,0.244379112
0.189518209,0.244327307
0.179796214,0.244314355
0.167622481,0.249585557
0.16032795,0.239237424
0.160334019,0.254856758
0.167664961,0.280888981
0.189615308,0.312088794
0.199397989,0.332953427
0.211614203,0.332992281
0.22137261,0.317424753
0.228697483,0.312166503
0.236028426,0.291263016
0.233704129,0.285965912
0.226585589,0.27552712
0.224479764,0.259959592
0.229880872,0.249546703
0.237964328,0.254662488
0.25123649,0.26501062
0.257517554,0.270230016
0.256783246,0.27572139
0.263586214,0.271097757
0.268089161,0.256372067
0.265267233,0.262705279
0.262287521,0.253639331
0.256595117,0.249935243
0.252984264,0.251502357
0.241702623,0.242578874
0.237393874,0.223009377
0.227951038,0.234264104
0.215904746,0.255413666
0.203767425,0.265826555
0.196472894,0.281199814
0.194069705,0.270579703
0.184384122,0.249585557
0.179565605,0.259855981
0.172289281,0.2390043
0.160133753,0.238991348
0.152821017,0.213036834
0.150369278,0.213127493
0.143007992,0.208063513
0.142935168,0.21338652
0.137977073,0.234238201
0.140307438,0.260218619
0.137782875,0.265386209
0.144962101,0.244586334
0.144810385,0.24971507
0.144640462,0.254817904
0.146885867,0.249481946
0.1369454,0.24406828
0.13916653,0.238641662
0.131653528,0.20210589
0.131483606,0.212402217
0.123994878,0.196860592
0.126228145,0.212518779
0.130882808,0.212544682
0.140368125,0.217634565
0.169285294,0.217505051
0.215212919,0.201846863
0.285445531,0.201795058
0.377579939,0.191369217
0.481882013,0.175736932
0.605622007,0.186059162
0.739138614,0.232748796
0.853211232,0.352160286
0.928365528,0.497616951
0.95975871,0.648357768
0.923049381,0.793905092
0.830393067,0.882233332
0.70372191,0.923755375
0.55517323,0.866601046
0.41391908,0.757498834
0.277513791,0.591255245
0.187333491,0.424972802
0.123915985,0.243058074
0.104308142,0.128632855
0.104223181,0.086968347
0.11877583,0.107716417
0.138244094,0.164896648
0.152875635,0.222076879
0.150490651,0.258444283
0.145678203,0.258366575
0.131089143,0.253121276
0.114066549,0.232282547
0.097043955,0.226998394
0.089761562,0.226907735
0.084906634,0.226752318
0.080100254,0.200642387
0.085040144,0.200499922
0.089973965,0.184828783
0.09249246,0.215924986
0.095010954,0.221079625
0.09996905,0.241801792
0.100066148,0.220924209
0.100175384,0.205227167
0.092984021,0.210291146
0.097936048,0.215368078
0.0931236,0.225586696
0.090641518,0.22543128
0.088031994,0.214901829
0.085234341,0.199217738
0.087079214,0.209565871
0.08619319,0.214707558
0.089852592,0.219732684
0.09561782,0.22447288
0.098676425,0.218424597
0.096728385,0.201523079
0.094780345,0.194594105
0.093014365,0.187406103
0.08424515,0.195591359
0.078328205,0.167512822
0.07042074,0.155273792
0.072617595,0.127972336
0.079954606,0.137530436
0.085028007,0.152761229
0.0901803,0.16835466
0.092892991,0.173690618
0.097984598,0.179013625
0.098160589,0.168652541
0.100703358,0.158148992
0.105655385,0.163083459
0.10572214,0.162824431
0.100970379,0.136675646
0.098706768,0.126107341
0.094058174,0.115642646
0.091897731,0.115603792
0.092201164,0.131249029
0.094962405,0.131300834
0.100163247,0.136533181
0.105370158,0.131391494
0.115425929,0.110734083
0.127897027,0.100437756
0.128176185,0.095309019
0.128400726,0.105747811
0.126203871,0.090283894
0.119139949,0.085258768
0.121791954,0.069872559
0.126919973,0.075325079
0.127199131,0.065235974
0.127478289,0.086294876
0.130209187,0.081386313
0.137813219,0.055742631
0.14297158,0.040485935
0.152966665,0.040744962
0.15566115,0.046158628
0.151036831,0.061920427
0.143966841,0.067295239
0.134463318,0.052012641
0.134675721,0.041910584
0.139761259,0.047453764
0.137558335,0.068538569
0.14510168,0.074042895
0.152645026,0.084740714
0.150423896,0.090309796
0.155497296,0.069846656
0.153245823,0.070131586
0.15584321,0.080764648
0.158440597,0.086165363
0.151328126,0.070869813
0.151516255,0.066077812
0.151692246,0.050963581
0.156735303,0.05142983
0.169085028,0.08823758
0.171700621,0.135393462
0.174316214,0.156568927
0.179365339,0.172576802
0.191684721,0.162604258
0.189402904,0.168225146
0.189554621,0.163394291
0.192085253,0.174130964
0.187345628,0.190074082
0.185033469,0.206043102
0.182733446,0.206509351
0.182866957,0.212194996
0.183018673,0.21788064
0.185597854,0.239146765
0.1833039,0.250038854
0.190713735,0.266137388
0.185943768,0.256268456
0.186016592,0.246347718
0.178770611,0.231194633
0.171518561,0.23680257
0.164248305,0.237255867
0.159411583,0.248173859
0.154593066,0.243563177
0.15951475,0.218191473
0.166906379,0.239574159
0.174298008,0.250608714
0.179243966,0.277158991
0.17931679,0.272483552
0.179371408,0.262601668
0.176992493,0.252706833
0.179456369,0.222012122
0.167300842,0.238084754
0.164885515,0.243731544
0.157560641,0.238991348
0.157548504,0.229083562
0.155114971,0.229601616
0.155127108,0.250945449
0.159994174,0.256656996
0.164873377,0.267458426
0.174625715,0.272988655
0.179492781,0.262886598
0.179462438,0.247526291
0.176956081,0.237385381
0.179268241,0.242786095
0.176707266,0.237799824
0.166863898,0.248406983
0.159526887,0.233111433
0.149786687,0.228267627
0.154702302,0.233836709
0.157232933,0.239353986
0.169534109,0.265606382
0.17211329,0.276174688
0.181999138,0.265943118
0.184560113,0.245350464
0.184657212,0.240260581
0.177453711,0.235118893
0.17025628,0.235157748
0.167962326,0.245648345
0.165674441,0.240571414
0.168253621,0.240765684
0.163556478,0.240985857
0.168617741,0.246347718
0.16395701,0.262070663
0.171470012,0.267354815
0.174097742,0.251826141
0.176707266,0.241529814
0.176828639,0.241568668
0.181780666,0.231207584
0.181835284,0.23642698
0.172119358,0.236491737
0.167246224,0.252214682
0.15992135,0.252408952
0.157463543,0.252603222
0.162288128,0.247552194
0.171967642,0.258081645
0.176761884,0.263352847
0.179086181,0.273791639
0.174103811,0.253043568
0.176379558,0.247850075
0.171324364,0.232243693
0.1735637,0.237437186
0.178248706,0.247863026
0.178072715,0.26357302
0.185197323,0.26376729
0.194779738,0.279529089
0.197061554,0.295303839
0.20179511,0.305846242
0.208980404,0.326736777
0.216141424,0.326801533
0.218435378,0.321672797
0.210989131,0.306066415
0.215686275,0.280085997
0.222786608,0.259234316
0.227453408,0.269647205
0.239432944,0.290460032
0.246575758,0.28537015
0.25621886,0.275073823
0.268422937,0.275112677
0.268647478,0.280293219
0.269096558,0.280215511
0.267385196,0.269724913
0.256230998,0.264466663
0.25513257,0.243757447
0.251897974,0.228500751
0.243978371,0.208400249
0.233728403,0.214642802
0.225814869,0.231673833
0.210370128,0.238602808
0.199464744,0.235248407
0.195501909,0.236932083
0.196060225,0.259091851
0.198675818,0.28604362
0.198639406,0.29178107
0.196005607,0.291819924
0.183589127,0.275954515
0.171172647,0.239185619
0.161226112,0.223190696
0.148858181,0.217764078
0.14623652,0.233305704
0.14845765,0.238576905
0.153100175,0.223074134
0.157682014,0.223061182
0.162221373,0.228189919
0.159393377,0.233344558
0.158950364,0.25927317
0.148736808,0.254066725
0.145775302,0.248782573
0.145253397,0.233111433
0.139888701,0.227814329
0.134542211,0.222633787
0.131653528,0.227879086
0.12634345,0.222789204
0.123472973,0.207260529
0.127915233,0.19168005
0.139633817,0.186525411
0.158689412,0.217764078
0.19721934,0.223074134
0.252802204,0.228371238
0.325450143,0.212816661
0.422445549,0.176410403
0.546228024,0.191952028
0.677329304,0.243874009
0.803587792,0.35296327
0.910420498,0.482878309
0.966185422,0.649160752
0.956251024,0.789462778
0.880641579,0.898577941
0.761240677,0.997344972
0.598011907,0.976700513
0.4274704,0.878037093
0.283685619,0.680632544
0.171542836,0.477956794
0.108107124,0.285680982
0.07875908,0.161024193
0.083486567,0.109102212
0.100387787,0.10392167
0.117313282,0.129953893
0.143978978,0.171501839
0.146309344,0.228604362
0.15108538,0.249378335
0.131513949,0.249391286
0.114357845,0.254558877
0.104490202,0.223346112
0.092170821,0.20764907
0.084706368,0.176397451
0.084512171,0.191900223
0.081829823,0.212648293
0.086344906,0.223009377
0.090720411,0.21262239
0.092468185,0.212596488
0.101255606,0.228099259
0.112148852,0.227969746
0.110522451,0.227697767
0.106153015,0.227102005
0.104010778,0.220885355
0.089640189,0.19866083
0.085125105,0.186512459
0.08573804,0.189711444
0.079450908,0.198155727
0.078479922,0.191174947
0.075524484,0.184504999
0.082649092,0.188571725
0.080282314,0.182730664
0.082867564,0.192884526
0.085434607,0.203336269
0.078200763,0.172330726
0.083061761,0.172356629
0.082988937,0.161827177
0.080488649,0.171968088
0.080421893,0.166528519
0.08039155,0.161037144
0.09258349,0.150442936
0.099932638,0.155455111
0.104884665,0.160441382
0.107415297,0.170634098
0.107512395,0.175646273
0.100302826,0.159910377
0.100357444,0.144161529
0.102833458,0.128373828
0.105291265,0.133256489
0.105327677,0.132958607
0.107840103,0.127570844
0.105503669,0.117170906
0.105625042,0.101642232
0.115486616,0.106939336
0.118071865,0.107055898
0.118217513,0.117546495
0.128085155,0.117650106
0.13064613,0.112573175
0.133194968,0.107496244
0.133304204,0.086825882
0.130973838,0.092097083
0.123770338,0.087033104
0.121427835,0.082033881
0.121512796,0.061531886
0.131337958,0.056649226
0.138741724,0.07256644
0.146127284,0.088444801
0.153518913,0.09388437
0.158464872,0.088936953
0.163398693,0.0736155
0.165892912,0.063500492
0.163483654,0.063759519
0.153767728,0.064031498
0.146479266,0.048710045
0.144082145,0.033466301
0.141697162,0.044280682
0.141757848,0.060340362
0.146673464,0.071154743
0.149149477,0.087123763
0.156492557,0.082292908
0.158974639,0.077384344
0.166293444,0.077682226
0.171154441,0.088380045
0.175991164,0.088652023
0.175942615,0.094117495
0.178303324,0.078834896
0.180682239,0.079236388
0.180639758,0.100450707
0.183042948,0.137323214
0.185476481,0.158628193
0.187922151,0.185113713
0.192783149,0.180425322
0.204938676,0.186085064
0.207360072,0.202144744
0.207329729,0.223359063
0.199974512,0.228992903
0.197462086,0.224226804
0.18761265,0.214280164
0.177763213,0.219939906
0.170353378,0.230831995
0.172708019,0.252188779
0.16776206,0.258016889
0.170147044,0.237903435
0.179832626,0.254053774
0.184639006,0.264945863
0.189433248,0.275786147
0.186920822,0.260646014
0.189263325,0.261125214
0.186744831,0.23566285
0.181792804,0.220587473
0.174395106,0.22628607
0.164576013,0.242371652
0.157166178,0.253302595
0.157050874,0.264272393
0.159393377,0.249222919
0.169024341,0.260102057
0.178679581,0.244948972
0.181028153,0.255711547
0.183376724,0.26128063
0.180803612,0.240830441
0.180627621,0.235986634
0.177987753,0.225884578
0.175335749,0.226130653
0.175117277,0.236698959
0.174941286,0.242125576
0.177210965,0.252784541
0.17220432,0.23747604
0.186653801,0.248044345
0.191369151,0.253380304
0.193657036,0.248251567
0.183771187,0.253496866
0.183631608,0.243200539
0.181058496,0.222530177
0.178521796,0.207040356
0.17845504,0.207156919
0.171105892,0.228112211
0.166202414,0.238771175
0.166184208,0.25468839
0.16862381,0.249883438
0.163762812,0.250259027
0.173478738,0.255763353
0.178333667,0.266357561
0.180773269,0.24053256
0.180773269,0.235481531
0.178370079,0.214875926
0.180846093,0.220211884
0.176063988,0.225508988
0.171312227,0.246399523
0.173873201,0.262161322
0.169139646,0.257188002
0.176585893,0.25220173
0.181568263,0.247189556
0.176798296,0.262873647
0.17931679,0.268105994
0.169637276,0.268093043
0.172082946,0.252538466
0.172082946,0.226648707
0.176901463,0.226739367
0.171955505,0.231997617
0.169430942,0.242410506
0.183953247,0.237320624
0.181434753,0.247914832
0.183771187,0.268960783
0.18366802,0.284813241
0.183528441,0.295381547
0.183358518,0.316246179
0.197771588,0.300691602
0.207287248,0.279956483
0.214357238,0.269673108
0.21412056,0.269724913
0.22363622,0.300872921
0.223435954,0.300872921
0.232981958,0.285292442
0.244973632,0.285344247
0.254525704,0.275138579
0.268932705,0.28050044
0.27117204,0.280629954
0.266104709,0.270320676
0.26102524,0.254792001
0.253487963,0.244469772
0.253214873,0.244521577
0.250490044,0.244599285
0.245325614,0.249818681
0.247479989,0.239418743
0.237515248,0.228992903
0.230038657,0.223851215
0.220243839,0.229148319
0.205721533,0.250025903
0.198694024,0.265632285
0.194354932,0.27074807
0.187897877,0.265463918
0.184195993,0.255141688
0.175942615,0.239923846
0.167938051,0.230262135
0.167367597,0.221001917
0.157032668,0.227645962
0.153816277,0.20860747
0.157597053,0.205395534
0.158525558,0.228086308
0.156577518,0.245324561
0.156692823,0.251644822
0.149216232,0.257421126
0.146436786,0.231531368
0.148439444,0.236465834
0.148014638,0.241322592
0.142759177,0.225405377
0.139973662,0.240713879
0.142085556,0.240519608
0.141769986,0.235222504
0.146321481,0.230003108
0.148372689,0.219654976
0.150369278,0.219758587
0.152347661,0.235390872
0.15430177,0.225042739
0.165983942,0.235339066
0.189833779,0.214487385
0.235603619,0.219654976
0.29596252,0.204100399
0.383102421,0.193752266
0.499456855,0.204191058
0.630448899,0.219875149
0.771229693,0.287494172
0.892572566,0.401880537
0.967702587,0.568240688
0.99419836,0.72418795
0.950121677,0.854064135
0.8452006,0.937108222
0.684320401,0.937030513
0.506399403,0.869450345
0.333363677,0.718826089
0.199288753,0.563047195
0.111487368,0.37093975
0.079681517,0.209993265
0.08197547,0.106201109
0.101322361,0.075169663
0.120644977,0.111575921
0.147274261,0.168782055
0.149550009,0.215536445
0.146952622,0.236310418
0.139506375,0.262226079
0.124771667,0.236206807
0.112494766,0.230987411
0.102669604,0.220626328
0.095296181,0.215458737
0.09765689,0.220691084
0.102469338,0.215575299
0.10970925,0.205240118
0.114521698,0.215691861
0.121798023,0.241698182
0.121761611,0.236595348
0.116821721,0.231375952
0.111809007,0.205317826
0.104259593,0.199968917
0.106292594,0.194632959
0.108155673,0.178974771
0.107299992,0.189335855
0.111014013,0.184142361
0.114436737,0.189232244
0.112707169,0.20448894
0.110759129,0.224641247
0.108683647,0.233992126
0.109035629,0.217025851
0.109545397,0.194568202
0.112786061,0.182251464
0.106668851,0.17505051
0.108289184,0.178443765
0.110285773,0.182238512
0.107700524,0.191718904
0.105297334,0.175672175
0.102991243,0.175516759
0.098300168,0.170336217
0.108186017,0.185981454
0.105861719,0.175659224
0.113216936,0.154859348
0.110813747,0.144252189
0.113271554,0.117909133
0.11328976,0.122701135
0.118199307,0.137906025
0.120711733,0.14282754
0.118375298,0.142672124
0.118508809,0.14254261
0.118666594,0.152787132
0.12616139,0.152657618
0.128813395,0.162915091
0.136320328,0.15238564
0.14383333,0.141895042
0.136739066,0.120978604
0.136957538,0.110436202
0.137188147,0.089519764
0.134979154,0.089442056
0.135203695,0.084235611
0.142722765,0.073939284
0.142965512,0.079262291
0.145666066,0.07944361
0.150806222,0.090050769
0.151079311,0.10067088
0.153779865,0.090504067
0.158920021,0.080337253
0.164035902,0.075363933
0.164254374,0.065184168
0.164466777,0.060184945
0.167112713,0.050044035
0.16486124,0.02954204
0.16748897,0.045355644
0.172574508,0.06644045
0.170365515,0.082396519
0.165735127,0.088017407
0.168405338,0.083199503
0.16377495,0.067981661
0.166445161,0.068266591
0.166651495,0.06855152
0.166833555,0.074029944
0.171846269,0.074353727
0.181689637,0.064316427
0.174516479,0.069859607
0.181956658,0.075389836
0.172380311,0.101732891
0.179887244,0.112469564
0.180099647,0.11806455
0.192467578,0.139240015
0.202389839,0.144796146
0.207426827,0.171100347
0.210012077,0.187017562
0.215000516,0.208167124
0.207809153,0.19818163
0.20791232,0.188183184
0.200720957,0.198997565
0.200830193,0.214979537
0.203421511,0.225832772
0.196290835,0.241957209
0.201346029,0.252862249
0.201515951,0.24818681
0.201679805,0.259065948
0.194518786,0.26472569
0.189754887,0.270346578
0.184978851,0.260399938
0.185033469,0.234924623
0.185063812,0.23021033
0.182678828,0.209954411
0.185154842,0.210498368
0.18761265,0.221481117
0.190112938,0.237696213
0.190185762,0.243576128
0.197577391,0.25458478
0.197668421,0.265554577
0.200199052,0.271279076
0.19300162,0.277042429
0.193086582,0.272405844
0.188286271,0.252175828
0.185919493,0.237152256
0.178667443,0.232489768
0.17872813,0.238227219
0.18366802,0.249209967
0.183734775,0.260244522
0.186253269,0.260879138
0.191193159,0.251126768
0.18638678,0.246451329
0.188899206,0.246904626
0.18897203,0.252525514
0.188996304,0.268494535
0.184129238,0.258431332
0.189020579,0.243135782
0.193905851,0.222633787
0.193936194,0.222931669
0.196406139,0.244094182
0.196424345,0.244508626
0.194021155,0.255297104
0.194087911,0.245259804
0.196612474,0.235118893
0.201600913,0.261254727
0.199270547,0.271848935
0.196976593,0.266888567
0.197116172,0.272289281
0.189985496,0.256903072
0.192625363,0.231142828
0.187994975,0.231350049
0.185840601,0.24197016
0.188559361,0.247396778
0.188820313,0.252758639
0.193960469,0.242527068
0.206383017,0.253030617
0.20908964,0.237540797
0.209368799,0.242811998
0.207202287,0.242902658
0.200168709,0.248147956
0.197983991,0.242967414
0.190895795,0.227464643
0.191071786,0.232735844
0.186350368,0.248458789
0.181616813,0.253833601
0.17931679,0.274788893
0.181871696,0.264583225
0.181999138,0.254377558
0.189390767,0.23891364
0.191891055,0.24417189
0.194379206,0.254545926
0.191945673,0.249352432
0.194367069,0.249339481
0.19920986,0.254545926
0.20646191,0.259791224
0.211292564,0.275475315
0.216135355,0.291133503
0.220978147,0.301637051
0.225839144,0.312088794
0.22826054,0.291418432
0.230688004,0.28632855
0.233103331,0.286367404
0.247662048,0.296819147
0.247601362,0.317670828
0.252401673,0.307374501
0.259641585,0.281471792
0.264460102,0.260762576
0.262002294,0.250414443
0.259568761,0.240092214
0.254701695,0.260969797
0.254738107,0.271499249
0.245107142,0.271551054
0.255065815,0.26118997
0.255442072,0.245544734
0.253597199,0.24024763
0.249616157,0.235002331
0.241089689,0.235041185
0.230499876,0.224861421
0.220207427,0.209786044
0.207675642,0.215899083
0.19762594,0.237981143
0.199634667,0.265593431
0.198954977,0.283090711
0.197862618,0.290201005
0.19146018,0.265943118
0.179753734,0.246451329
0.172598783,0.242099674
0.160364362,0.23728177
0.150466377,0.237268818
0.145447594,0.226596902
0.147765823,0.22619541
0.150114394,0.21548464
0.157390719,0.2308838
0.157372513,0.246386572
0.150017296,0.2619541
0.145065268,0.256773559
0.147377428,0.235921877
0.147207506,0.220224836
0.144585844,0.225275864
0.146800905,0.230326892
0.139281835,0.219823344
0.13418416,0.214539191
0.131520017,0.193648656
0.121543139,0.188403357
0.128588854,0.172887634
0.1429291,0.219719733
0.174291939,0.240610268
0.212967514,0.256242553
0.273544887,0.23546858
0.351169128,0.214655753
0.467735965,0.193752266
0.586754541,0.19368751
0.713097991,0.23518365
0.829737652,0.318292493
0.91960845,0.432549345
0.970573064,0.578057815
0.970475965,0.723566285
0.899836753,0.83786199
0.77812976,0.93135782
0.627256783,0.941693001
0.461794746,0.853312957
0.318246643,0.707791535
0.211231877,0.525954515
0.145587173,0.354543335
0.111548055,0.224706004
0.096983269,0.141558307
0.109187346,0.110332591
0.123873505,0.110345542
0.136120062,0.146687043
0.138656763,0.209008962
0.13875993,0.25573745
0.138869166,0.276459618
0.12924427,0.2815495
0.119613305,0.250259027
0.114849406,0.218942651
0.107639837,0.203193804
0.100436337,0.203064291
0.093244974,0.197793089
0.088511418,0.20812827
0.098397267,0.213334715
0.096151862,0.202999534
0.101225263,0.203064291
0.098943446,0.208231881
0.094143135,0.223695799
0.098949515,0.233901466
0.101122095,0.2284878
0.105485463,0.212738952
0.099853745,0.191822515
0.101225263,0.176125473
0.099865883,0.175853494
0.098257687,0.190928871
0.091563955,0.200590582
0.084803466,0.194373932
0.082995005,0.182678858
0.083826412,0.191576439
0.077678859,0.205512097
0.079196024,0.203815469
0.085938306,0.196977154
0.083262027,0.190384914
0.083255958,0.17380718
0.085847276,0.157682744
0.086059679,0.147153292
0.083856755,0.152437445
0.086514829,0.157708646
0.08428763,0.162863285
0.091776358,0.147153292
0.094410157,0.152178418
0.099483557,0.151971196
0.107026902,0.15172512
0.100023668,0.161814226
0.097887499,0.151116407
0.100660877,0.145637984
0.091242316,0.140263172
0.091576092,0.129785526
0.099210467,0.134901311
0.10200812,0.129694866
0.109703182,0.134849505
0.114988985,0.12447547
0.125160061,0.108933844
0.130482276,0.109063358
0.133334547,0.119553955
0.133747216,0.11443817
0.129292819,0.109309434
0.124856628,0.093793711
0.125293571,0.067916904
0.120845243,0.073291716
0.118860791,0.078718334
0.121731268,0.07896441
0.12946881,0.068823499
0.142055213,0.069108429
0.14732281,0.064225768
0.154993598,0.064536601
0.160212646,0.080389059
0.153251892,0.080609232
0.158440597,0.065158266
0.161213975,0.044500855
0.154271427,0.034256333
0.157093354,0.024076568
0.152608614,0.024335596
0.153009145,0.035007512
0.148530474,0.035305393
0.148906731,0.025229239
0.151680109,0.035940009
0.154435281,0.062257162
0.157166178,0.072967932
0.159891007,0.078446355
0.162615836,0.068292493
0.162919269,0.042597006
0.160801306,0.037701394
0.156243742,0.048438067
0.151667971,0.048800705
0.159247729,0.080337253
0.152195945,0.080712843
0.159727153,0.091449516
0.174571097,0.112586127
0.182108374,0.149367974
0.187193912,0.16013055
0.187424521,0.17609957
0.185233734,0.186758535
0.183036879,0.16625654
0.190543813,0.166580324
0.185852738,0.192897477
0.185998386,0.198531316
0.186137965,0.219784489
0.181410478,0.240998808
0.188874931,0.225897529
0.184147444,0.247215459
0.18425668,0.258159353
0.181932383,0.248355178
0.179565605,0.243718593
0.177174553,0.233823758
0.17474102,0.229096513
0.174722814,0.229575714
0.17958988,0.245661296
0.169843611,0.235831218
0.169873954,0.241542765
0.162627973,0.252525514
0.157827662,0.258262964
0.157870143,0.258819873
0.160309744,0.264622079
0.157870143,0.270476092
0.165152536,0.239975651
0.169952847,0.245803761
0.167440421,0.241167176
0.164903721,0.241749987
0.159903144,0.247539243
0.157311826,0.243045123
0.149847373,0.233383412
0.154532379,0.244469772
0.15435032,0.255465472
0.156595724,0.276848158
0.166123522,0.277405067
0.165911118,0.26232969
0.17297504,0.247241361
0.182478562,0.252901103
0.174941286,0.248135005
0.169837542,0.264116977
0.162306334,0.254131482
0.152359799,0.249391286
0.157038736,0.239444646
0.154441349,0.245013728
0.154271427,0.25573745
0.161420309,0.26118997
0.171033068,0.256255504
0.173345228,0.246166399
0.17564525,0.251644822
0.173072138,0.241503911
0.165625891,0.252033363
0.158161439,0.257330467
0.160412912,0.231363001
0.157809456,0.226221313
0.155218138,0.241957209
0.152608614,0.257680153
0.152438691,0.278570688
0.154678027,0.283828939
0.152026022,0.273493757
0.154228946,0.252745687
0.146679532,0.252797493
0.148827838,0.247642853
0.146084803,0.247603999
0.153039489,0.247526291
0.152663232,0.242293944
0.149835236,0.216365332
0.154289633,0.216481894
0.153870895,0.23221779
0.155861416,0.253082422
0.148087462,0.273882298
0.145162367,0.268701756
0.151959267,0.263495312
0.148979555,0.268688805
0.153270098,0.284217479
0.160000243,0.289333264
0.16186939,0.289229653
0.161323211,0.294319536
0.172956834,0.289126043
0.177271651,0.30478423
0.176719403,0.315248925
0.183473823,0.325687717
0.18049411,0.325674766
0.18480286,0.320416516
0.186665938,0.31519712
0.195805342,0.299551883
0.202499075,0.299500078
0.211620272,0.283790084
0.223175002,0.262899549
0.225013806,0.247124799
0.224461558,0.231466611
0.214266208,0.231479563
0.206601489,0.247189556
0.203973759,0.257628348
0.203979828,0.278376418
0.196964456,0.262705279
0.192661775,0.252162876
0.186235064,0.231375952
0.187406315,0.252370098
0.176640511,0.23728177
0.161122945,0.248497643
0.152893841,0.254869709
0.142061281,0.245972129
0.133389165,0.263275139
0.124358998,0.275462363
0.122234966,0.287455318
0.112464422,0.278272807
0.109715319,0.273843444
0.118976096,0.248173859
0.113544644,0.268960783
0.108064643,0.268792416
0.097729714,0.252939958
0.097177466,0.252629125
0.094203822,0.226415583
0.091236247,0.221144382
0.090714342,0.210822152
0.090186369,0.236945034
0.096940788,0.263067917
0.098803867,0.278674299
0.100636603,0.283790084
0.097577997,0.268080091
0.092049447,0.257576543
0.088905881,0.247047091
0.083316645,0.231324147
0.075281738,0.205227167
0.074541361,0.189491271
0.088390045,0.204994042
0.121682718,0.230961509
0.171991917,0.236245661
0.249094252,0.251955655
0.345695195,0.226078848
0.456933748,0.205369632
0.575460763,0.200163187
0.696445585,0.262459203
0.800395677,0.366290214
0.887304968,0.46491478
0.915797331,0.573978138
0.885884902,0.677886857
0.807338225,0.745454074
0.677717698,0.797531472
0.531098852,0.813254416
0.389389553,0.782184116
0.259908606,0.662759675
0.166954928,0.517354815
0.105667522,0.356382428
0.080913455,0.210925763
0.06833919,0.122571621
0.072799655,0.12246801
0.074838725,0.153564213
0.084178394,0.189879811
0.078935071,0.205473243
0.07613135,0.22628607
0.066045236,0.241879501
0.053555932,0.25229239
0.045933694,0.262705279
0.035877923,0.257537688
0.035580558,0.242009014
0.035271057,0.216067451
0.034961555,0.216041548
0.034658122,0.210796249
0.031933293,0.226273118
0.026811344,0.231414806
0.021719737,0.236582397
0.019104144,0.220976014
0.026259095,0.22102782
0.028565187,0.221092576
0.021143214,0.236673056
0.013672693,0.252188779
0.013405672,0.252111071
0.012986934,0.231194633
0.005061263,0.220678133
0.009030167,0.210174584
0.007846778,0.220419106
0.006372094,0.209798995
0.007063921,0.204229912
0.012410411,0.193234212
0.017635528,0.18183702
0.020451387,0.196070559
0.023388619,0.209915557
0.016864808,0.21310159
0.010686912,0.211016422
0,0.198686733
0.001826667,0.181500285
0.001492891,0.180334663
0.006202171,0.18480288
0.013448152,0.184492048
0.020730545,0.18441434
0.02800687,0.168885665
0.032825386,0.15860229
0.032740425,0.158615241
0.02533059,0.174079159
0.020378563,0.163433145
0.020317876,0.16309641
0.022733203,0.152359737
0.032461267,0.146855411
0.04218933,0.130964099
0.049495998,0.125511579
0.059224061,0.135626587
0.054350926,0.135406414
0.05682694,0.124889913
0.059333297,0.135315754
0.059430395,0.114658343
0.0595457,0.140768274
0.062112744,0.140897788
0.076847452,0.140936642
0.089148628,0.130536704
0.098979858,0.104659897
0.101498352,0.078744237
0.104004709,0.084067243
0.099216536,0.094596695
0.106626371,0.079119826
0.11646367,0.068978915
0.116585043,0.064096254
0.126452686,0.059187691
0.138747793,0.059420815
0.151055037,0.06997617
0.156055613,0.075286225
0.151303852,0.070261099
0.156274085,0.054900793
0.144173175,0.060301508
0.146667395,0.03977361
0.144276343,0.045200228
0.154040818,0.045446304
0.166257032,0.024944309
0.163878117,0.009700565
0.166366268,0.004895612
0.178612826,0
0.183564853,0.036639382
0.188492605,0.042053049
0.195841754,0.042247319
0.203178765,0.021680568
0.208057968,0.001100865
0.215352498,0.001321038
0.222665234,0.022354038
0.2275323,0.02781951
0.237284638,0.059304253
0.237327119,0.075260322
0.249543333,0.080816453
0.25204969,0.096772522
0.261868783,0.117922085
0.266820811,0.144200383
0.26931503,0.160117598
0.266923978,0.150041444
0.262069049,0.165945708
0.25476845,0.171475936
0.259623379,0.182199658
0.25472597,0.213749158
0.257159503,0.224511734
0.257183777,0.230132622
0.266948253,0.225366523
0.276706659,0.215471688
0.284031533,0.23671191
0.288910736,0.242384603
0.293765665,0.273972958
0.284031533,0.274309693
0.279158398,0.243472517
0.276712728,0.249080454
0.283995121,0.249572605
0.293711047,0.255284153
0.30099344,0.255815158
0.300981302,0.26156556
0.298547769,0.251670725
0.300981302,0.246995286
0.298547769,0.263080868
0.298547769,0.284308139
0.298565975,0.289929027
0.305872643,0.285137025
0.31073364,0.269867378
0.31073364,0.259830078
0.313161105,0.260257473
0.313167173,0.265943118
0.313155036,0.26644822
0.305854437,0.272107962
0.31313683,0.267380718
0.320413154,0.278259856
0.320394948,0.289151945
0.320376742,0.289657048
0.320358536,0.305677874
0.315455059,0.280073046
0.31544899,0.264842252
0.310557649,0.259998446
0.310521237,0.249961146
0.310496963,0.260684868
0.312888015,0.286950215
0.320158271,0.276848158
0.322573598,0.282300679
0.322616078,0.272107962
0.322694971,0.282702171
0.313076143,0.2724706
0.313203585,0.288115837
0.3109157,0.288102886
0.306170007,0.2724706
0.3062489,0.24129669
0.299033262,0.251735482
0.296690759,0.262161322
0.301660992,0.267432523
0.309070827,0.29339999
0.311613596,0.277780656
0.309301436,0.267328913
0.306971071,0.272535357
0.311917029,0.282935295
0.316790164,0.288115837
0.314326288,0.277702948
0.302073661,0.27762524
0.294669895,0.256851267
0.287241854,0.246503134
0.282241278,0.262187225
0.286962696,0.257097342
0.284383515,0.27275553
0.28671995,0.257162099
0.291483848,0.246839869
0.298663074,0.257278661
0.293668566,0.272897995
0.300829586,0.28327203
0.300677869,0.277961975
0.295653018,0.267419572
0.29791056,0.251670725
0.295307105,0.256812413
0.295167525,0.27762524
0.302328545,0.288115837
0.304628568,0.293412941
0.311789587,0.28824535
0.323817673,0.293438844
0.323678094,0.303799927
0.338133644,0.303748122
0.33796979,0.303657463
0.347521862,0.272315184
0.354670745,0.24617935
0.357019317,0.225314718
0.3522008,0.220056468
0.342709414,0.230456406
0.333491119,0.225262913
0.334310388,0.235623996
0.328144628,0.22514635
0.329576832,0.2304046
0.333697453,0.251476454
0.335578738,0.241620474
0.332665781,0.221623582
0.319945868,0.207040356
0.311892755,0.182212609
0.293783871,0.199075273
0.280220414,0.221196187
0.263865373,0.243278247
0.252061828,0.244340258
0.240033742,0.224291561
0.230281404,0.23498938
0.225341514,0.234859866
0.222810882,0.255310055
0.220292388,0.244612236
0.217773894,0.23919857
0.217695001,0.202662799
0.217597903,0.197339792
0.215061202,0.207623167
0.210084901,0.202403771
0.202650791,0.212777807
0.200077679,0.202429674
0.192631432,0.186875097
0.187618718,0.192042688
0.187491276,0.202300161
0.192212694,0.217725224
0.189615308,0.233163239
0.182138717,0.217466197
0.174643921,0.196601565
0.167118782,0.180865669
0.157141903,0.149497487
0.152032091,0.154457856
0.149355812,0.174998705
0.163708195,0.195591359
0.197492429,0.185048956
0.258051596,0.184906491
0.335645493,0.18469927
0.442417512,0.184479097
0.558899388,0.194632959
0.682663657,0.220406154
0.80151231,0.277301456
0.891152499,0.365344765
0.946711089,0.526045174
0.941425286,0.676410403
0.885059564,0.832059783
0.780065663,0.925452002
0.64344797,0.935787183
0.492223011,0.868194063
0.355587113,0.72265969
0.240895492,0.545951407
0.170013533,0.379681915
0.123491179,0.213373569
0.108635097,0.109374191
0.113283692,0.067670828
0.125281434,0.072670051
0.142188723,0.11921722
0.154247152,0.176177278
0.146837317,0.222815106
0.137024293,0.227853183
0.117489274,0.227684816
0.107724798,0.222297052
0.102863801,0.222102782
0.105327677,0.232295498
0.102948762,0.237294721
0.110334323,0.226700513
0.105527943,0.210886909
0.100733701,0.179466922
0.095945528,0.15851163
0.088711684,0.163471999
0.079068582,0.17887116
0.076750353,0.194296223
0.084202669,0.214901829
0.094130998,0.199088225
0.099216536,0.21960317
0.104308142,0.2088924
0.09725029,0.224149096
0.092632039,0.223864166
0.090441252,0.18718593
0.083401606,0.171307569
0.076337685,0.170983785
0.076531882,0.186214578
0.069340519,0.201393566
0.069304107,0.216598456
0.076355891,0.195526602
0.085543843,0.190035228
0.089530953,0.184504999
0.090696136,0.173638813
0.089106147,0.188481065
0.087285549,0.187457908
0.078134008,0.175749883
0.076477264,0.153395845
0.072714694,0.136053981
0.069389068,0.139537896
0.071428138,0.148448428
0.078728737,0.168225146
0.081465703,0.178029322
0.081951196,0.177796197
0.089797974,0.177666684
0.090344154,0.156672538
0.088432526,0.151103455
0.093779016,0.155908408
0.089379237,0.155442159
0.08986473,0.13422784
0.087947033,0.12342641
0.086114297,0.102250945
0.09163071,0.107107703
0.085028007,0.127687406
0.090617243,0.13279024
0.091339414,0.132751386
0.094501186,0.122260788
0.10495142,0.106550795
0.108070712,0.111640678
0.116075276,0.101188934
0.111906106,0.111588872
0.11261007,0.085634357
0.113314035,0.075299176
0.11890934,0.054538155
0.117228321,0.054538155
0.115565508,0.059822307
0.11877583,0.085932239
0.117137291,0.096552349
0.117901943,0.096733668
0.118666594,0.076037404
0.119413039,0.060547583
0.12017769,0.071012278
0.123388012,0.071102937
0.119297735,0.05038077
0.117634922,0.055651971
0.111105042,0.045355644
0.114327501,0.045498109
0.112682894,0.066479304
0.11347182,0.07715122
0.119127812,0.082616692
0.122374546,0.093236803
0.12561521,0.077850593
0.128837669,0.062451432
0.127199131,0.057439258
0.127951645,0.073188105
0.121397491,0.083730508
0.136726928,0.078705383
0.137473374,0.073680257
0.140689764,0.084326271
0.148791426,0.089882402
0.152056366,0.116264311
0.16019444,0.153046159
0.161001572,0.153369942
0.173958163,0.169222401
0.179577743,0.179881366
0.182739515,0.19569497
0.188316614,0.211508574
0.189038785,0.211819406
0.187333491,0.217323732
0.173466601,0.228060405
0.166918516,0.223203647
0.162810033,0.228811584
0.170838871,0.244806507
0.166706113,0.260840284
0.177162416,0.261254727
0.185154842,0.24607574
0.176088263,0.236025488
0.171864475,0.251955655
0.167628549,0.257498834
0.158537695,0.273429001
0.154338182,0.279075791
0.142844139,0.269142102
0.150818359,0.259221365
0.149070585,0.244107134
0.161936146,0.265360307
0.167513245,0.276226493
0.177939204,0.287053826
0.176155018,0.271952546
0.17678009,0.267160545
0.177380887,0.251942703
0.173096413,0.241918355
0.17125154,0.24742268
0.162099999,0.258159353
0.160255127,0.248122054
0.163295526,0.253665233
0.156638205,0.243640885
0.162148549,0.264790447
0.165249634,0.280733565
0.165911118,0.291457286
0.173836789,0.286548723
0.172010123,0.265956069
0.167713511,0.255711547
0.170699292,0.245428172
0.17125154,0.250738227
0.171803788,0.266461172
0.167501108,0.266603637
0.165656235,0.266720199
0.163829568,0.261669171
0.164484983,0.251385795
0.172453135,0.27227633
0.17560277,0.282728073
0.183637677,0.27753458
0.181956658,0.272289281
0.182678828,0.25659224
0.171196922,0.235688753
0.162118205,0.225211107
0.15547909,0.245959177
0.158537695,0.245894421
0.161614507,0.256229602
0.172004054,0.261397192
0.172665538,0.271745325
0.173339159,0.287248096
0.17641597,0.297505569
0.177028905,0.292143708
0.160552491,0.281575403
0.163495791,0.265878361
0.161541683,0.244987826
0.159581505,0.234497228
0.162445913,0.239535305
0.160412912,0.2705538
0.15833743,0.260089105
0.158689412,0.254882661
0.161487065,0.249624411
0.169145715,0.270346578
0.171949436,0.26501062
0.172331762,0.275281044
0.165413488,0.259584002
0.163331938,0.264622079
0.158798648,0.254092628
0.151819688,0.253898358
0.15212919,0.258897581
0.145125955,0.274322644
0.15271785,0.284580117
0.16032795,0.274115422
0.163070985,0.279218256
0.165789745,0.273882298
0.173345228,0.304900793
0.178436834,0.30993887
0.185937699,0.320053878
0.188565429,0.319755996
0.183898629,0.314251671
0.191441974,0.31921204
0.189354355,0.313798373
0.189845917,0.318823499
0.19295914,0.313513444
0.208507049,0.308203388
0.217045655,0.302919235
0.238067496,0.308047972
0.244803709,0.30812568
0.259058993,0.318797596
0.271026393,0.28833601
0.268362251,0.268572243
0.258245793,0.2595581
0.250307985,0.250802984
0.249336999,0.262886598
0.245550154,0.269647205
0.231707539,0.260464695
0.22975343,0.240415998
0.225189797,0.2614749
0.220529066,0.266551831
0.213404458,0.276615034
0.20138851,0.276213542
0.189402904,0.265412112
0.182326846,0.254701342
0.175287199,0.24406828
0.158489146,0.25429985
0.153834483,0.259389732
0.141824604,0.259312024
0.137097117,0.254040823
0.137236696,0.238382635
0.134942742,0.233124385
0.13264272,0.248627156
0.137643296,0.258897581
0.135318999,0.258716262
0.135385754,0.237683262
0.140271026,0.237294721
0.130518688,0.242073771
0.123163472,0.231272341
0.123084579,0.236193856
0.118156826,0.251567114
0.118114346,0.235779413
0.118065796,0.235572191
0.11315625,0.240519608
0.105788896,0.235131845
0.115425929,0.235015283
0.117738089,0.214072942
0.127332642,0.219085116
0.153949788,0.224071388
0.200047336,0.244664042
0.27044987,0.244495674
0.360326737,0.218437549
0.474557139,0.213127493
0.613171421,0.21299798
0.756677044,0.275177434
0.888033208,0.358104958
0.978073928,0.47743874
1,0.596798425
0.93433709,0.679764803
0.800559531,0.736724861
0.627851512,0.710524271
0.440554433,0.611588872
0.287332884,0.455512097
0.170638605,0.294319536
0.105078862,0.153913899
0.088201916,0.091475418
0.09326318,0.106965239
0.110498176,0.169131741
0.135058047,0.194917888
0.145047062,0.231142828
0.147699067,0.251774336
0.135755943,0.25678651
0.114072618,0.256553385
0.09725029,0.245829664
0.08773463,0.209151427
0.083061761,0.193286018
0.085701628,0.187872351
0.081046965,0.203284464
0.081265437,0.229057659
0.086393456,0.223592188
0.084257287,0.218100813
0.082145393,0.217841786
0.082460963,0.228021551
0.082788671,0.21740144
0.083086035,0.227490546
0.08333485,0.221869658
0.083504773,0.205797026
0.085986855,0.189724395
0.083450155,0.184194167
0.085592392,0.204747967
0.080173078,0.214940683
0.084184463,0.214668704
0.082988937,0.219434803
0.086350975,0.218800186
0.091909868,0.233525877
0.092486391,0.227114956
0.088262603,0.210032119
0.081787342,0.182251464
0.078085459,0.169934725
0.077211572,0.157773403
0.076744285,0.166658032
0.074207585,0.175970056
0.0816599,0.175361343
0.089257863,0.169857017
0.089609846,0.169714552
0.106978353,0.18002383
0.109715319,0.185165518
0.109945928,0.185061907
0.110182606,0.179648241
0.103118685,0.153292234
0.096097244,0.121677978
0.084269424,0.10047661
0.082212148,0.110565715
0.089913279,0.125990779
0.097644753,0.13106771
0.107846172,0.12580946
0.118059728,0.130938196
0.125851888,0.141273377
0.123909917,0.136105787
0.129280682,0.125744703
0.129754037,0.115370668
0.122890382,0.110203077
0.12085738,0.089364348
0.123697514,0.078925556
0.121688787,0.078951458
0.124553195,0.094622598
0.132327149,0.084352173
0.142552843,0.079249339
0.1454658,0.084481687
0.148354483,0.094998187
0.148791426,0.100360048
0.146764493,0.084960887
0.147128613,0.069548775
0.145016719,0.054084857
0.138055965,0.059343107
0.138389742,0.064562503
0.138753861,0.069872559
0.14401539,0.07523442
0.149295125,0.059887064
0.152147396,0.070429467
0.155005735,0.075778376
0.157858005,0.091527224
0.16069207,0.10726312
0.161068327,0.107405585
0.161408172,0.09196757
0.159296278,0.081658291
0.152293043,0.086929493
0.147705136,0.097407139
0.145562899,0.113155986
0.148312002,0.118582604
0.158373842,0.129215666
0.168478162,0.155468062
0.181009947,0.176539916
0.188644322,0.213153396
0.196272629,0.218580013
0.199027801,0.213606693
0.201764767,0.208659276
0.204459252,0.224498783
0.197401399,0.224783712
0.192758874,0.240610268
0.188128486,0.235649899
0.178649237,0.225547842
0.17891019,0.225897529
0.174322282,0.226260167
0.18190204,0.247461534
0.187042195,0.263391701
0.189712406,0.242941512
0.18747307,0.227607108
0.19494966,0.233085531
0.187818984,0.233370461
0.185555373,0.244094182
0.183309969,0.239250376
0.173757897,0.23441952
0.171506424,0.240040408
0.174140222,0.230132622
0.176786159,0.251411698
0.181835284,0.246762161
0.177162416,0.268002383
0.167610343,0.263210382
0.172653401,0.263495312
0.175262925,0.268960783
0.187594444,0.243343004
0.187734023,0.238460343
0.180560866,0.249145211
0.180682239,0.238991348
0.175948683,0.239250376
0.171215128,0.223915972
0.168909037,0.234652645
0.176331009,0.245363415
0.176434176,0.250906595
0.178952671,0.261526706
0.176585893,0.246166399
0.176634442,0.23594778
0.179067975,0.236090245
0.176646579,0.231052168
0.174225184,0.251942703
0.176664785,0.257213905
0.181531851,0.236491737
0.186429261,0.226260167
0.18647781,0.241983111
0.184153513,0.257770813
0.179401751,0.283919598
0.177083523,0.273649174
0.169952847,0.258107548
0.172550233,0.237372429
0.17514762,0.21663731
0.175299337,0.21672797
0.175463191,0.216792727
0.173205649,0.23241206
0.166135659,0.232476817
0.168830144,0.23776097
0.166693976,0.232735844
0.174322282,0.258806921
0.179510987,0.269206859
0.177374819,0.258781018
0.175214375,0.243096928
0.177920998,0.227412837
0.17088742,0.227348081
0.16866629,0.242850852
0.168854419,0.253147179
0.161729811,0.247875978
0.159441926,0.227024297
0.17419484,0.216611408
0.174328351,0.226985443
0.174431518,0.237372429
0.172082946,0.263275139
0.174595372,0.27351966
0.174619647,0.25783557
0.177071386,0.247332021
0.174607509,0.242073771
0.169691894,0.242009014
0.172082946,0.247111848
0.172028329,0.257369321
0.179268241,0.262498057
0.184092826,0.272872092
0.196205873,0.272885044
0.210764591,0.304020101
0.218034846,0.319496969
0.222853363,0.334960887
0.230087207,0.293257525
0.230014383,0.287973372
0.232369023,0.272328136
0.239566455,0.292985546
0.241902889,0.298049526
0.244233255,0.292687665
0.251418549,0.261358338
0.258634187,0.245674248
0.258573501,0.235157748
0.256097487,0.245454074
0.251248627,0.250531006
0.256249203,0.260827333
0.254106966,0.245130291
0.254616734,0.234549034
0.245671528,0.234393618
0.241927164,0.234199347
0.238583332,0.234173445
0.218538545,0.229122416
0.210885964,0.219188727
0.198420934,0.225172253
0.190659117,0.22102782
0.187436658,0.232593379
0.181337654,0.249287675
0.182071962,0.265709993
0.180002549,0.25573745
0.170341241,0.260943895
0.165377076,0.234639693
0.157930829,0.223747604
0.155357717,0.228448946
0.14311116,0.233318655
0.13576808,0.217505051
0.145502212,0.222607885
0.143080816,0.217388489
0.143032267,0.227749573
0.142935168,0.248406983
0.145186642,0.248199762
0.147383497,0.253030617
0.147128613,0.231842201
0.144434128,0.210627882
0.144142832,0.210213438
0.1365388,0.225405377
0.124079839,0.240623219
0.121342873,0.21434492
0.118587701,0.203711858
0.11338079,0.187963011
0.125190404,0.203388074
0.149155546,0.234380666
0.177969547,0.260205668
0.223824349,0.265166036
0.286713881,0.228565508
0.359325408,0.191926125
0.463591069,0.181306015
0.584885393,0.191498731
0.720817327,0.2380459
0.844611939,0.331386313
0.941674101,0.419636844
0.982819621,0.544332487
0.953423028,0.663808734
0.872952586,0.777961975
0.73893228,0.824535046
0.578155248,0.782766927
0.414950753,0.683831529
0.273660191,0.517380718
0.173727554,0.340517018
0.117622784,0.205201264
0.098057422,0.121846345
0.102845595,0.090465213
0.11501326,0.09550329
0.136939332,0.126534736
0.149143409,0.167914314
0.149191958,0.230080816
0.134615035,0.266202145
0.117580304,0.260697819
0.105358021,0.234380666
0.102845595,0.213218153
0.090599038,0.197275035
0.088110887,0.191731855
0.088080543,0.201782106
0.085665216,0.211897114
0.090574763,0.196122364
0.085768383,0.195928094
0.095593545,0.206094908
0.095690644,0.211042325
0.103064067,0.241931306
0.09579988,0.241607522
0.095769537,0.225651453
0.088335427,0.214862975
0.080743532,0.204100399
0.080245902,0.19857017
0.074632391,0.208646324
0.078461716,0.187600373
0.079566212,0.176837797
0.080397619,0.186590167
0.090744685,0.195902191
0.093712261,0.204760918
0.091879525,0.213166347
0.090240987,0.210912811
0.088918018,0.192962234
0.080670708,0.180256955
0.082533787,0.162604258
0.077430044,0.176501062
0.075002579,0.170180801
0.077593897,0.148785163
0.080245902,0.143397399
0.08777711,0.15382324
0.092826236,0.164210226
0.097832881,0.179648241
0.110097645,0.184530902
0.110170469,0.168574833
0.110231155,0.157786354
0.102991243,0.146971973
0.098215207,0.151776926
0.088626723,0.130679169
0.088808783,0.10449153
0.096346059,0.10955551
0.101474078,0.109542558
0.104192838,0.119968399
0.111784732,0.125135989
0.124249762,0.119851837
0.129414192,0.109413045
0.134554348,0.11978708
0.129936097,0.114593586
0.130172775,0.114567684
0.130373041,0.098922447
0.130585444,0.088496607
0.128352177,0.057283842
0.130998113,0.072877273
0.133644049,0.062593897
0.14116312,0.083445578
0.141375523,0.088639072
0.146473198,0.088639072
0.149119134,0.078213231
0.151783276,0.078252085
0.154429212,0.083497384
0.154593066,0.073110397
0.149877716,0.062736362
0.145168436,0.047142931
0.140489498,0.021201368
0.138274437,0.036833653
0.140908236,0.042208465
0.141084227,0.078731285
0.143687682,0.089286639
0.146303275,0.089455007
0.153792003,0.094713257
0.158822923,0.094790965
0.163835636,0.115694452
0.166408749,0.126133244
0.168957586,0.126159146
0.171506424,0.094946381
0.166748594,0.089739937
0.171737033,0.0846112
0.174291939,0.121121069
0.174419381,0.126534736
0.181841353,0.152709423
0.194112185,0.178793452
0.196648885,0.184077605
0.204046583,0.189322903
0.208980404,0.210213438
0.213914226,0.215562348
0.209113915,0.205330778
0.206765343,0.215847278
0.189821642,0.200486971
0.189912672,0.211158887
0.185130567,0.232308449
0.170608262,0.269077345
0.170668948,0.26424649
0.170711429,0.269673108
0.178084852,0.243835155
0.187879671,0.249197016
0.190361753,0.254610682
0.187946426,0.249676216
0.180609415,0.239548257
0.178145539,0.219007408
0.175669525,0.214008185
0.17319958,0.229886546
0.170759978,0.240636171
0.170778184,0.25659224
0.168362857,0.26730301
0.165977874,0.257188002
0.17329061,0.252227633
0.180591209,0.236919132
0.180560866,0.252784541
0.187800778,0.258237062
0.177969547,0.2480832
0.173035726,0.243058074
0.172962902,0.227697767
0.17288401,0.243537274
0.167931982,0.264660934
0.172726225,0.259830078
0.170201662,0.270489043
0.177411231,0.249935243
0.179747665,0.244897166
0.17718669,0.239872041
0.179480644,0.250427395
0.179347133,0.240169922
0.176767953,0.229860643
0.179061906,0.219551365
0.174085605,0.214422629
0.174012781,0.245726053
0.17152463,0.256346164
0.171494286,0.261785733
0.173921751,0.241141273
0.171482149,0.246373621
0.181216281,0.251515309
0.178807023,0.256721753
0.176403833,0.277521629
0.174024918,0.272302233
0.171676346,0.246205253
0.164478914,0.235636948
0.167015615,0.225003885
0.169546246,0.2404419
0.169631207,0.250725276
0.177028905,0.261073408
0.179565605,0.266124437
0.182102305,0.245156193
0.187048264,0.260529451
0.170080288,0.255128736
0.167707442,0.270527897
0.167695305,0.265153085
0.167646755,0.249365384
0.167549657,0.228358286
0.165000819,0.233305704
0.169722237,0.233150288
0.169564452,0.243446615
0.16454567,0.259001192
0.164387885,0.258949386
0.166651495,0.258819873
0.168909037,0.263793193
0.171148373,0.273934104
0.163647508,0.268507486
0.173151031,0.257887375
0.165595548,0.236854375
0.162937475,0.231401855
0.174892736,0.236323369
0.172234663,0.272457649
0.189044853,0.298321504
0.200994047,0.324250117
0.203215177,0.329430658
0.207869839,0.334494638
0.214951967,0.339455007
0.219594492,0.354789411
0.21933354,0.338962856
0.221481846,0.312801119
0.226045479,0.286639382
0.233042644,0.265658188
0.24003981,0.249818681
0.244621649,0.265166036
0.251715914,0.249481946
0.249167076,0.270255919
0.251600609,0.259894835
0.254185859,0.270204113
0.249646501,0.269970989
0.247795559,0.264453712
0.238929245,0.264155831
0.227951038,0.248355178
0.219715865,0.206910843
0.206874579,0.186499508
0.199015663,0.19235352
0.186222926,0.22964047
0.187831121,0.230844946
0.18181101,0.242552971
0.180275639,0.248963892
0.175912271,0.260399938
0.178509658,0.281808527
0.175972958,0.282015749
0.168423544,0.266266902
0.160795237,0.250271978
0.145854194,0.234199347
0.138256231,0.228539605
0.133146419,0.243731544
0.128079087,0.233059628
0.130318423,0.238110656
0.132539552,0.2380459
0.142018801,0.23278765
0.149028104,0.258664456
0.156049545,0.263702533
0.153288304,0.263456458
0.152948459,0.25277159
0.142844139,0.231686784
0.140010074,0.21061493
0.129857204,0.205084702
0.122137868,0.204747967
0.119297735,0.204411231
0.121336805,0.209280941
0.133134281,0.209034865
0.161936146,0.219227581
0.200466073,0.229420297
0.265740589,0.234380666
0.355301886,0.20812827
0.46431324,0.192172201
0.583004108,0.181422577
0.701670702,0.232943066
0.810572821,0.341566078
0.895121404,0.502253536
0.926162604,0.668186292
0.896401891,0.834170854
0.810700263,0.948259338
0.683652848,1
0.53228831,0.984186396
0.385790838,0.890496296
0.256334165,0.718864943
0.160934817,0.505698596
0.102044532,0.308060923
0.079681517,0.151919391
0.076823177,0.07370616
0.095915184,0.089040564
0.112604002,0.130394239
0.126895698,0.187367249
0.129056141,0.218372792
0.128813395,0.238926592
0.126149253,0.264635031
0.11619058,0.254001969
0.103828718,0.238227219
0.098749249,0.222361809
0.088796645,0.206392789
0.08614464,0.19560431
0.083510842,0.179648241
0.083316645,0.200111382
0.083140653,0.220626328
0.085440676,0.2203673
0.087771042,0.204475988
0.092565284,0.214526239
0.092486391,0.219344143
0.097262427,0.22418795
0.0923104,0.213438326
0.092213301,0.218230327
0.094549736,0.212570585
0.099301497,0.191291509
0.099186193,0.180412371
0.099083025,0.195539553
0.099010201,0.200409263
0.098985927,0.215756618
0.089263932,0.194762472
0.094130998,0.184103507
0.103834787,0.199399057
0.106171221,0.199049371
0.105916337,0.198686733
0.095702781,0.203491685
0.087680012,0.187444957
0.089118284,0.155843651
0.087849934,0.1553515
0.093596956,0.154807543
0.089354962,0.159301663
0.097116779,0.173871937
0.104842184,0.162112107
0.102936625,0.149989639
0.103707345,0.168807957
0.107239306,0.177109776
0.101407322,0.190708698
0.100806525,0.183740869
0.102918419,0.161581101
0.102845595,0.129474693
0.102906282,0.11347977
0.103033724,0.102937367
0.110486039,0.129008444
0.113053083,0.139615604
0.11315625,0.150158007
0.122969274,0.14502927
0.125487769,0.13460343
0.130451933,0.113699943
0.128121567,0.113531575
0.125815476,0.09264104
0.123479042,0.082176346
0.121166882,0.071763456
0.121282187,0.045821893
0.121379285,0.051093094
0.131228722,0.082305859
0.121609894,0.10315754
0.126610471,0.087602963
0.131653528,0.06691965
0.14156972,0.067062115
0.156322634,0.067126871
0.156450076,0.082746205
0.158998914,0.093094338
0.163969147,0.077475004
0.156777784,0.061907476
0.144713286,0.046378801
0.142395058,0.051637051
0.13277623,0.056921204
0.140192134,0.072579392
0.142759177,0.072683003
0.155066421,0.077928301
0.160079135,0.083316065
0.17242886,0.073058592
0.174995904,0.088677926
0.177556879,0.078290939
0.180111785,0.073058592
0.180233158,0.062736362
0.177902792,0.068033466
0.185312627,0.088924001
0.187831121,0.099479356
0.187940357,0.120305134
0.195356261,0.1152023
0.202778233,0.120499404
0.200472142,0.146648189
0.212767249,0.17275812
0.215322155,0.183235766
0.215437459,0.188455162
0.215528489,0.18842926
0.215607382,0.167745946
0.210819209,0.178288349
0.208452431,0.183624307
0.208531323,0.21491478
0.208598079,0.235805315
0.206267713,0.230767238
0.206358743,0.230948557
0.199137036,0.246801015
0.194324588,0.257447029
0.194361,0.262795938
0.194379206,0.278467078
0.194373138,0.247357924
0.194354932,0.237100451
0.194342794,0.221714241
0.189481797,0.247953686
0.18951214,0.258638554
0.189542484,0.264091074
0.189591033,0.264363052
0.187169637,0.254248044
0.194476305,0.249365384
0.199331234,0.249740973
0.204204368,0.265697042
0.201789041,0.265956069
0.209095709,0.240234679
0.206662176,0.230054914
0.204204368,0.219926954
0.204155819,0.22026369
0.199240204,0.256967829
0.196776327,0.267743356
0.196733847,0.268144848
0.196715641,0.268572243
0.196697435,0.274206082
0.199130968,0.269427032
0.196679229,0.274970212
0.189354355,0.275255142
0.194197147,0.265114231
0.194154666,0.239457597
0.194142529,0.213852769
0.194148597,0.209125525
0.194172872,0.235649899
0.19422749,0.257032586
0.196745984,0.262834793
0.20414975,0.279011035
0.20183759,0.274361498
0.206819961,0.248873232
0.204501733,0.244081231
0.19975604,0.249611459
0.20473841,0.255051028
0.197540979,0.234471326
0.190349616,0.218994457
0.190434577,0.213930477
0.192947002,0.219240533
0.195465497,0.245389318
0.197977922,0.271551054
0.205345276,0.271667616
0.212700493,0.287338756
0.212724768,0.251010206
0.205430238,0.235313164
0.200532828,0.240351241
0.198068952,0.250556908
0.198002197,0.255620888
0.195520115,0.255439569
0.188146692,0.255271201
0.183194664,0.223954826
0.1782305,0.223877118
0.185458275,0.218709527
0.187800778,0.234315909
0.199871344,0.249883438
0.20949624,0.249818681
0.204483527,0.244534528
0.204313604,0.24445682
0.199264478,0.244379112
0.19663068,0.249456043
0.189154089,0.254455266
0.188984167,0.249067502
0.191265983,0.233292752
0.183844011,0.238421489
0.191047512,0.259169559
0.193390015,0.274724136
0.205454512,0.290265762
0.215061202,0.295342693
0.227077151,0.295148423
0.222034094,0.294941201
0.2267191,0.305146868
0.221639631,0.304939647
0.219011901,0.304719474
0.22372725,0.283712376
0.226087959,0.267950578
0.228563973,0.27304046
0.24095011,0.283375641
0.248705858,0.31443299
0.266468828,0.319471067
0.282077424,0.319224991
0.297989453,0.319082526
0.309295368,0.277638191
0.311061348,0.267743356
0.303147814,0.258301818
0.292740061,0.254532974
0.284553438,0.266616588
0.278490845,0.268429778
0.272045928,0.249443092
0.272561764,0.251023157
0.27276203,0.262575765
0.26786462,0.278790862
0.260400167,0.278894472
0.248001893,0.262990209
0.235579345,0.246865772
0.228090617,0.235986634
0.218192631,0.235675802
0.215631657,0.240700927
0.203342618,0.250984303
0.198354179,0.256151893
0.188510811,0.240610268
0.171336501,0.225029788
0.168751252,0.240597316
0.171039137,0.256074185
0.178157676,0.266266902
0.175529946,0.255672693
0.17532968,0.239846138
0.175135483,0.224097291
0.170043876,0.218761332
0.162530874,0.229018805
0.15503001,0.249611459
0.152408348,0.259881884
0.157099423,0.249404238
0.154495967,0.238965446
0.159205248,0.244029425
0.15661393,0.238706419
0.166196345,0.269686059
0.168496368,0.253872455
0.170790322,0.258832824
0.158477009,0.21194892
0.143711957,0.175464954
0.131362232,0.15975496
0.138432222,0.180256955
0.152802811,0.190320157
0.179371408,0.205615707
0.237563797,0.200163187
0.322531117,0.194671813
0.414786899,0.199567425
0.521607467,0.204424183
0.633301169,0.2299254
0.747398062,0.286626431
0.851760822,0.358933844
0.919590244,0.483189142
0.941188608,0.633437808
0.904370043,0.778454126
0.811531669,0.887154846
0.682184232,0.949243641
0.535826339,0.907566181
0.391914116,0.793192768
0.274819306,0.632013159
0.179650567,0.449955965
0.128315765,0.273001606
0.101298087,0.173910791
0.09860967,0.095580998
0.117859462,0.074444387
0.132284669,0.105294514
0.149185889,0.14655753
0.151546598,0.208633373
0.151504118,0.249922292
0.14419745,0.254843807
0.132029785,0.244158939
0.127174856,0.21262239
0.117471068,0.20182096
0.115073947,0.201406517
0.10780976,0.216520748
0.100533435,0.221260944
0.100594122,0.21567891
0.100642671,0.210109827
0.093408827,0.188882557
0.09348772,0.17284878
0.103349294,0.1983759
0.105958818,0.197987359
0.108568342,0.208050562
0.111177866,0.202494431
0.106504998,0.196873543
0.106668851,0.191239704
0.101935296,0.201173393
0.09960493,0.200707144
0.097256358,0.195008548
0.097365594,0.178948868
0.102366171,0.183689064
0.100120766,0.141739626
0.093020433,0.172602704
0.1029609,0.198298192
0.100703358,0.208400249
0.103209715,0.208050562
0.103124753,0.181733409
0.105260922,0.186564265
0.107117932,0.175827592
0.113544644,0.165129773
0.109915585,0.190656893
0.1084409,0.169261255
0.101898884,0.157980625
0.100163247,0.136066933
0.098512571,0.139900534
0.097128917,0.148772212
0.100940036,0.162785577
0.105127412,0.1768637
0.109691044,0.159949231
0.107275717,0.143345594
0.112355187,0.153175672
0.110249361,0.137375019
0.11306522,0.147865617
0.108568342,0.137724706
0.111329583,0.132738434
0.114054412,0.117326322
0.1216281,0.117442885
0.126756119,0.133114024
0.127041346,0.148720406
0.139548856,0.153991608
0.147213574,0.138385225
0.145156298,0.122804745
0.14555683,0.102043724
0.138614282,0.096902036
0.141399797,0.091747397
0.139318247,0.102160286
0.137248833,0.096966793
0.137594747,0.096979744
0.14528374,0.065844687
0.138414016,0.050328964
0.133983894,0.076374139
0.136860439,0.086799979
0.144610119,0.102367508
0.154769057,0.091941667
0.160054861,0.076309382
0.160479667,0.071077035
0.156019201,0.055509506
0.163714263,0.05554836
0.156808127,0.055613117
0.149914128,0.045290887
0.152748193,0.045394498
0.153154793,0.050730456
0.153561394,0.071633943
0.166111384,0.092472673
0.171372913,0.102898513
0.176634442,0.108040201
0.181883834,0.092369062
0.177399093,0.061104492
0.17048082,0.045459255
0.166002148,0.050652748
0.163950941,0.071478527
0.157026599,0.076788582
0.162275991,0.07695695
0.167525382,0.082279956
0.172762636,0.087551158
0.182860888,0.10841579
0.192977346,0.144873854
0.198208531,0.165699632
0.205848975,0.176151375
0.211061955,0.170983785
0.211413937,0.155403305
0.209320249,0.150261617
0.212069353,0.176371548
0.207511788,0.186965757
0.207845565,0.197547013
0.205727602,0.213218153
0.206049241,0.20812827
0.196636748,0.223812361
0.196958387,0.239561208
0.189991565,0.2605165
0.192734599,0.265943118
0.195453359,0.266137388
0.195714312,0.245454074
0.188644322,0.224744858
0.193766272,0.224848469
0.189172295,0.225029788
0.187023989,0.230482308
0.187333491,0.225547842
0.19005832,0.215381029
0.190343547,0.231233487
0.193044101,0.23671191
0.186004454,0.273377195
0.186247201,0.273636222
0.188929549,0.268636999
0.184317367,0.242799047
0.182114443,0.232580428
0.177514398,0.232800601
0.182630279,0.22791794
0.182921575,0.238641662
0.190525607,0.249352432
0.190853314,0.249663265
0.186313956,0.239574159
0.196387933,0.250323784
0.191848575,0.261073408
0.187309216,0.266616588
0.185227666,0.256475677
0.178260843,0.235921877
0.173721485,0.220535668
0.169188195,0.215601202
0.169515903,0.221105528
0.177168484,0.247357924
0.175129414,0.25802984
0.180427355,0.268649951
0.188213447,0.273947055
0.19843914,0.258405429
0.194051499,0.23241206
0.194488442,0.237527845
0.192455441,0.242578874
0.195234888,0.237217013
0.185822395,0.226570999
0.183716569,0.221170284
0.181622881,0.221001917
0.177113866,0.236504688
0.182320777,0.251994509
0.189949084,0.26223903
0.182964055,0.256838315
0.190568087,0.225444231
0.190865452,0.225198156
0.191156747,0.230197379
0.191393425,0.21960317
0.184305229,0.219382997
0.186926891,0.224304512
0.17977194,0.213606693
0.172604851,0.23413459
0.177617565,0.254766099
0.180214952,0.249456043
0.180390943,0.249313578
0.17813947,0.23871937
0.190489195,0.248795524
0.188237722,0.243278247
0.185961974,0.248199762
0.186107622,0.232399109
0.181367998,0.226972491
0.183935041,0.216274672
0.174346557,0.23671191
0.174492205,0.241594571
0.174625715,0.256941926
0.172362105,0.256864218
0.174977698,0.246373621
0.177605428,0.225496037
0.185075949,0.22523701
0.192497921,0.240415998
0.202310946,0.276330104
0.207269042,0.28632855
0.204956882,0.285991815
0.212451678,0.275281044
0.210370128,0.290485935
0.206079584,0.29531679
0.214193384,0.294980055
0.215279674,0.315507952
0.228800651,0.299746153
0.237739788,0.289307362
0.249361273,0.289372118
0.258719148,0.294889395
0.27543224,0.300795213
0.296927437,0.275915661
0.303584758,0.246140496
0.300186308,0.216533699
0.291562741,0.228332384
0.272865197,0.25019427
0.266037953,0.271680568
0.254125172,0.277171942
0.261541076,0.277068331
0.264035295,0.271551054
0.256777177,0.271007097
0.242273078,0.25994664
0.225371857,0.259350878
0.210928444,0.238071802
0.201358166,0.232580428
0.19178182,0.216792727
0.18706647,0.226946589
0.179893313,0.237061597
0.170310897,0.241905403
0.165571273,0.23116873
0.165704784,0.225690307
0.170699292,0.225483086
0.165923256,0.230456406
0.161122945,0.245739004
0.158750099,0.260969797
0.158762236,0.239755478
0.149052379,0.234095736
0.144245999,0.212933223
0.144337029,0.202157696
0.146879798,0.227762524
0.144579776,0.237748018
0.149574283,0.22695954
0.149701725,0.216171061
0.159539025,0.226208361
0.157178315,0.246619696
0.154781194,0.251411698
0.14750487,0.240506657
0.137782875,0.224369269
0.137770738,0.187341346
0.147462389,0.165984562
0.162021107,0.186266383
0.205776151,0.201380614
0.271439062,0.195682018
0.356558098,0.189944568
0.466012465,0.189439465
0.592501563,0.194140807
0.723857726,0.255957623
0.83572742,0.34894835
0.923261784,0.452300161
0.954806683,0.55563902
0.918200521,0.669351914
0.823189567,0.757149148
0.694121288,0.787882713
0.543145144,0.766707248
0.392205412,0.698829198
0.263203889,0.552983992
0.180463767,0.375990779
0.131835588,0.245803761
0.110006615,0.146764752
0.114970779,0.110047661
0.129687282,0.11998135
0.14442199,0.135056727
0.144579776,0.170906077
0.144780041,0.191149044
0.135294725,0.221830804
0.113647811,0.216209916
0.104204975,0.226182459
0.099665617,0.204981091
0.090253124,0.183766772
0.102760634,0.193674558
0.105509737,0.208788789
0.105855651,0.218618868
0.101322361,0.228435994
0.106529272,0.21223385
0.097141054,0.201277004
0.085319303,0.185061907
0.088080543,0.194775424
0.083522979,0.209773092
0.088717753,0.203996788
0.096358197,0.203465783
0.09675266,0.197728332
0.094750002,0.191977931
0.097626547,0.207001502
0.100503092,0.206353935
0.100970379,0.195293478
0.096515982,0.194607056
0.099319703,0.183481842
0.099617068,0.161982593
0.097371663,0.171657255
0.099853745,0.197016008
0.099726303,0.196485002
0.099392527,0.206418691
0.10364059,0.195617262
0.102730291,0.195073305
0.101498352,0.204631404
0.097584066,0.198246387
0.100836868,0.181150598
0.10902956,0.169015179
0.102815252,0.141092058
0.106680989,0.128671709
0.108525862,0.142296534
0.105885994,0.140574004
0.103585972,0.13929182
0.103980435,0.138501787
0.106960147,0.117378128
0.105127412,0.127661503
0.105734278,0.143190178
0.113587125,0.148202352
0.12625242,0.13747863
0.136472045,0.111096721
0.134505799,0.131443299
0.14229189,0.1362353
0.133067526,0.115072787
0.128746639,0.119903642
0.126871423,0.104051184
0.122586949,0.103869865
0.13046407,0.083005232
0.133498401,0.098482101
0.138960196,0.108713671
0.146861592,0.118854582
0.144974239,0.097756825
0.140671558,0.081865513
0.14850013,0.066038958
0.149009898,0.065818785
0.151965336,0.075972647
0.154932911,0.054887841
0.157924761,0.049435321
0.158507352,0.044021655
0.159089944,0.06988551
0.157269345,0.090555872
0.15788228,0.100800394
0.160898405,0.090193234
0.154143985,0.089934207
0.164387885,0.068914158
0.160018449,0.073848625
0.165383145,0.084028389
0.168344651,0.089014661
0.164017696,0.09397503
0.16454567,0.078161426
0.165097918,0.078006009
0.163210564,0.083108843
0.15887754,0.103792157
0.169133577,0.09846915
0.174516479,0.113842408
0.184736104,0.098041755
0.194931454,0.108208569
0.202675066,0.123555924
0.200690614,0.123400508
0.201133626,0.144019064
0.18942111,0.154276537
0.18747307,0.169766358
0.183127909,0.185307983
0.188510811,0.200836658
0.193899782,0.237113402
0.209010748,0.247435632
0.211947979,0.262899549
0.209975665,0.24197016
0.20555768,0.236647153
0.193808752,0.215730715
0.194221421,0.220833549
0.187333491,0.225975237
0.180445561,0.236336321
0.178418628,0.236388126
0.171542836,0.241594571
0.171985848,0.226027042
0.182162992,0.241620474
0.187479139,0.251955655
0.187916083,0.257097342
0.188359095,0.257097342
0.191193159,0.246671502
0.189129815,0.220768792
0.189493934,0.220807646
0.182551386,0.220859452
0.180481973,0.231363001
0.180846093,0.257434078
0.176385627,0.25755064
0.179231829,0.247241361
0.177210965,0.247306118
0.182496768,0.262899549
0.185336902,0.283699425
0.178467178,0.283673522
0.183734775,0.278480029
0.186556703,0.242125576
0.182053756,0.210938714
0.179966137,0.20573227
0.177884586,0.210938714
0.175821242,0.226467388
0.181064564,0.247202507
0.186326093,0.247189556
0.189160158,0.247189556
0.192018497,0.236815521
0.190009771,0.247189556
0.185561442,0.262692328
0.181094908,0.252240584
0.179025494,0.24694348
0.176950012,0.215665959
0.182175129,0.215614153
0.182563524,0.220716987
0.187855396,0.24655494
0.188310546,0.267147594
0.188808176,0.261772781
0.186926891,0.256436823
0.18996729,0.245829664
0.190616637,0.240286484
0.188808176,0.255426618
0.182102305,0.2705538
0.185057743,0.259778273
0.178254775,0.243899912
0.183607333,0.228073356
0.179243966,0.217440294
0.184626868,0.227568254
0.182697034,0.258457235
0.18317039,0.258172305
0.190901864,0.263067917
0.191314533,0.24197016
0.19413646,0.246826918
0.189621376,0.262005906
0.187539826,0.266810858
0.173272404,0.266474123
0.173575837,0.255763353
0.169000067,0.229472103
0.164436434,0.213541936
0.172058672,0.223553334
0.182096237,0.249145211
0.184827134,0.264414858
0.197280026,0.279788116
0.192704256,0.274361498
0.18811028,0.268908978
0.178631031,0.268624048
0.174018849,0.268248459
0.166967065,0.27829871
0.164764141,0.272833238
0.165006888,0.267354815
0.1701167,0.25669585
0.180148197,0.26156556
0.192613226,0.271719422
0.197777656,0.302621354
0.207803084,0.323149251
0.215370704,0.328083718
0.220480517,0.322514635
0.230475601,0.311635497
0.230760828,0.3111822
0.23116136,0.326309382
0.236586742,0.315507952
0.239797064,0.304706522
0.243292613,0.288750453
0.251970798,0.283181371
0.258549226,0.303709268
0.260545815,0.293283427
0.265200478,0.28833601
0.272343292,0.273312438
0.274540147,0.258573797
0.27162719,0.244029425
0.28055419,0.250271978
0.272076271,0.251282184
0.263216026,0.262511009
0.251618815,0.242216236
0.239827407,0.226726416
0.22549323,0.216080402
0.218423241,0.225975237
0.206498322,0.251372844
0.201922552,0.266396415
0.194937523,0.250336735
0.18552503,0.260309278
0.171227265,0.254740196
0.169060753,0.249171113
0.166833555,0.248769621
0.159702878,0.238019997
0.159872801,0.227270372
0.152729987,0.221714241
0.155351649,0.211003471
0.145811714,0.241840647
0.148445513,0.257110294
0.143772644,0.272405844
0.141521171,0.251295135
0.148973486,0.24570015
0.149082722,0.245207999
0.151613353,0.234302958
0.146806974,0.244184842
0.149295125,0.238486246
0.137206353,0.232826504
0.127532907,0.221999171
0.122708322,0.21635238
0.117889805,0.236686007
0.115504822,0.246645599
0.130124225,0.251411698
0.139852289,0.261397192
0.17147608,0.255789256
0.215261468,0.255297104
0.27122059,0.234056882
0.353960711,0.22322955
0.441573968,0.202041134
0.560823153,0.191330363
0.682518009,0.227373983
0.806676741,0.310210848
0.89921775,0.43986686
0.947985508,0.574690463
0.916489158,0.68871419
0.831497563,0.776757499
0.697835309,0.807581723
0.537434534,0.781199814
0.389219631,0.692457131
0.262930799,0.536147231
0.168290033,0.37466974
0.112616139,0.218398695
0.098330511,0.129630109
0.101085683,0.103274102
0.123315188,0.139278869
0.143159709,0.196057608
0.15086084,0.252823395
0.153707041,0.26797648
0.146819111,0.267613842
0.135070184,0.277638191
0.120863449,0.261578511
0.106650645,0.240312387
0.097298839,0.21902036
0.092801961,0.202973631
0.085895825,0.212868466
0.091181629,0.23317619
0.089197177,0.248303373
0.104277799,0.25822411
0.102335828,0.252538466
0.112549384,0.226104751
0.117920149,0.22045796
0.113544644,0.220017614
0.111590535,0.240325338
0.102293347,0.234549034
0.095356868,0.223527431
0.088286878,0.212492877
0.076173831,0.211987774
0.078419235,0.221960317
0.085252547,0.226804124
0.096673767,0.231570222
0.105351952,0.225819821
0.113805597,0.224926177
0.112373393,0.213295861
0.106098397,0.222102782
0.099999393,0.230534114
0.099052682,0.218036057
0.098500434,0.195151013
0.095903047,0.177744392
0.09607297,0.181590944
0.098900966,0.185955551
0.094598285,0.195863337
0.102530025,0.185333886
0.108046437,0.180075636
0.11596604,0.190384914
0.12140356,0.185010102
0.121943671,0.195047402
0.122477713,0.194620007
0.118132552,0.183831529
0.113811665,0.147140341
0.111948586,0.126133244
0.110134057,0.141532404
0.113223005,0.141441745
0.118781898,0.156957468
0.126816805,0.162163912
0.12996644,0.14655753
0.140422743,0.151751023
0.138656763,0.146479822
0.144191381,0.14636326
0.152123121,0.1462726
0.147850784,0.109866342
0.148421238,0.094182251
0.141666818,0.094091592
0.142212998,0.09914262
0.140362056,0.114619489
0.138541458,0.114554732
0.13916653,0.098974253
0.149531803,0.104180697
0.155042147,0.083419676
0.162961749,0.114464073
0.168435681,0.103908719
0.16658474,0.077746982
0.164715592,0.072385121
0.160406843,0.077539761
0.156085957,0.087939698
0.154222878,0.098313734
0.152347661,0.103520178
0.152912047,0.093172046
0.146194039,0.103675594
0.149198026,0.114205046
0.154629478,0.119528053
0.164927995,0.145495519
0.170335172,0.140185463
0.170857077,0.119269026
0.166499778,0.124345957
0.171870543,0.119113609
0.172398517,0.124345957
0.180239227,0.155519867
0.17591834,0.160713361
0.174049193,0.171139201
0.184353779,0.186784438
0.189773093,0.19732684
0.20002913,0.218217376
0.21026696,0.22351448
0.210752453,0.218308035
0.211256152,0.218308035
0.204428909,0.223540382
0.202480869,0.24445682
0.193232229,0.249818681
0.186404986,0.239574159
0.18443874,0.244910118
0.17274443,0.265839507
0.178090921,0.271201368
0.180997809,0.287014972
0.191193159,0.282067554
0.194087911,0.266668394
0.187230324,0.251269233
0.187667267,0.251372844
0.185652472,0.251489406
0.183631608,0.256825364
0.181604675,0.251826141
0.181987001,0.257226856
0.175086934,0.24703414
0.175487465,0.247254313
0.180761131,0.257913278
0.176306734,0.263443506
0.176713335,0.253367352
0.179553468,0.253626379
0.179972206,0.243433663
0.17551174,0.248769621
0.173448395,0.259260219
0.176270322,0.264570274
0.174237321,0.254312801
0.177065317,0.228513703
0.175038384,0.218333938
0.172993246,0.223747604
0.175796967,0.213580791
0.176136812,0.239716624
0.18131338,0.250181319
0.186459604,0.23470445
0.186726625,0.229549811
0.186993646,0.213995234
0.17510514,0.245117339
0.172968971,0.229472103
0.170857077,0.244987826
0.166329856,0.229394395
0.166687907,0.219098068
0.176798296,0.229588665
0.179632361,0.255659742
0.18493637,0.260866187
0.182939781,0.276420764
0.185834532,0.255646791
0.183862217,0.250427395
0.179462438,0.234782158
0.179935794,0.239923846
0.177981685,0.250207222
0.176051851,0.2605165
0.174134154,0.250025903
0.184384122,0.22916127
0.180063235,0.229070611
0.183042948,0.239341035
0.186016592,0.265153085
0.184135307,0.259791224
0.187102882,0.259596954
0.180312051,0.259402684
0.175912271,0.238382635
0.171482149,0.248510594
0.164576013,0.243071025
0.164958339,0.237618505
0.160437186,0.242643631
0.165644097,0.226972491
0.163544341,0.237255867
0.171172647,0.242410506
0.17632494,0.273493757
0.1790437,0.278570688
0.184177787,0.273208828
0.179553468,0.252214682
0.174917011,0.231181682
0.175135483,0.22571621
0.175353955,0.240985857
0.173120687,0.245933275
0.170881352,0.245777858
0.180797543,0.250906595
0.183419205,0.266409366
0.188504743,0.287118583
0.196048088,0.307775993
0.206043172,0.317994612
0.213568312,0.312632751
0.211365388,0.296858001
0.218841978,0.281031446
0.223848623,0.280798322
0.223969997,0.290939232
0.226518834,0.285525566
0.238807872,0.274970212
0.243863067,0.264440761
0.248936467,0.25918251
0.251661296,0.269517692
0.24720083,0.269478837
0.245319545,0.284929804
0.24362032,0.274348547
0.2445731,0.248135005
0.245829313,0.232295498
0.235209156,0.211327255
0.22975343,0.190605087
0.217221646,0.196148267
0.20723263,0.191628244
0.202043925,0.187432005
0.199088487,0.199075273
0.193396083,0.221209138
0.189754887,0.253691136
0.178448972,0.275540071
0.171694552,0.265787701
0.159824252,0.260775527
0.155096765,0.244987826
0.15031466,0.218592965
0.147972157,0.218152619
0.13595014,0.222957571
0.13857787,0.2174921
0.143663408,0.21740144
0.141472621,0.212169093
0.14655209,0.217362586
0.146746287,0.243355955
0.144440196,0.253652282
0.14451302,0.248264518
0.144537295,0.227179713
0.142097693,0.216430089
0.134748545,0.221312749
0.127411534,0.226260167
0.122508056,0.241620474
0.115177114,0.231065119
0.115140702,0.204916334
0.112670757,0.18393514
0.117519617,0.178560327
0.124771667,0.199191835
0.144154969,0.225055691
0.175657388,0.240493706
0.22903126,0.240299435
0.299421657,0.208931254
0.39411704,0.193156504
0.505865361,0.177446511
0.620077557,0.198116873
0.736753631,0.249948195
0.836425316,0.364075532
0.892348026,0.509389732
0.887444548,0.654716883
0.819287418,0.810508729
0.700038233,0.878114801
0.541882863,0.862573175
0.386173163,0.74827747
0.249956002,0.5611822
0.155114971,0.374035124
0.096789072,0.2284878
0.074978305,0.108933844
0.077539279,0.062075843
0.099598862,0.077500907
0.126561922,0.13451277
0.136520594,0.201924571
0.139190805,0.253846552
0.132139021,0.253885406
0.120220171,0.243472517
0.105843514,0.217349635
0.091442581,0.211910066
0.081902647,0.21166399
0.082096844,0.211482671
0.06770198,0.195772678
0.072805724,0.190462622
0.06575394,0.174687872
0.075773299,0.184880589
0.076058526,0.205434388
0.083668627,0.200072528
0.091296934,0.194710667
0.098913103,0.215290369
0.101662206,0.215018391
0.101959571,0.219926954
0.097408075,0.219654976
0.090416978,0.214254261
0.085841207,0.193298969
0.083626146,0.187898254
0.08134433,0.177291095
0.088699547,0.202973631
0.093481651,0.223579236
0.095648163,0.233810807
0.099975118,0.233642439
0.101571176,0.207467751
0.100430268,0.186369994
0.091709602,0.185787183
0.092498528,0.174506553
0.093208562,0.178508522
0.086684751,0.166645081
0.08279474,0.15458737
0.08895443,0.152890742
0.090635449,0.166891157
0.095138396,0.18116355
0.099975118,0.18537274
0.102608917,0.17954463
0.102918419,0.163743978
0.098439747,0.153382894
0.098822073,0.163912345
0.099174055,0.169300109
0.094610422,0.143449205
0.090022515,0.143462156
0.092741275,0.122649329
0.100351375,0.12781692
0.105582561,0.127842822
0.110886571,0.143475107
0.108908187,0.138320468
0.121549208,0.127985287
0.122022563,0.112469564
0.122483782,0.122986064
0.127787791,0.128360877
0.128194391,0.123309848
0.128600992,0.107832979
0.126549784,0.097575506
0.126938179,0.087369839
0.124880903,0.098015852
0.127714967,0.113881262
0.128127636,0.098546858
0.135828767,0.114334559
0.138662831,0.098935399
0.146363962,0.099103766
0.146764493,0.109697974
0.15688702,0.104698751
0.157269345,0.115254106
0.157615259,0.084235611
0.157961173,0.068784645
0.151018625,0.058578977
0.15135847,0.07437963
0.137097117,0.09541263
0.132582033,0.11127804
0.132927947,0.106278817
0.143001924,0.106473087
0.1433357,0.111899705
0.148524405,0.132893851
0.153688835,0.133101072
0.161292868,0.133230586
0.164017696,0.122934259
0.166742525,0.117870279
0.169479491,0.138786717
0.177101729,0.175439051
0.182290434,0.175762835
0.185057743,0.196834689
0.185379382,0.197067813
0.185688884,0.212855515
0.188389438,0.228746827
0.191059649,0.239418743
0.188856725,0.250103611
0.19150873,0.229588665
0.191727202,0.229808838
0.187102882,0.224887323
0.182496768,0.251230379
0.182757721,0.267251204
0.173272404,0.272897995
0.178388285,0.273312438
0.178624963,0.278920375
0.178837366,0.258547894
0.183916835,0.274555769
0.179250035,0.28537015
0.174565029,0.285823447
0.177156347,0.275850904
0.17002567,0.260633062
0.170177387,0.255815158
0.167907708,0.256281407
0.170517232,0.267238253
0.168265759,0.278169196
0.168453887,0.289087189
0.173484807,0.289592291
0.173642592,0.279684505
0.176197498,0.264609128
0.173848927,0.280604051
0.176349215,0.270605605
0.173952094,0.255374812
0.169133577,0.24531161
0.161893665,0.230145573
0.164424296,0.24101176
0.162099999,0.251955655
0.167088439,0.273286536
0.169655482,0.284191576
0.174637853,0.28986427
0.172289281,0.290304616
0.174783501,0.295925504
0.172368174,0.301507538
0.177241308,0.281083251
0.177223102,0.260633062
0.172349968,0.245389318
0.167482902,0.235403823
0.157760907,0.25659224
0.152918116,0.267406621
0.162694728,0.278221002
0.162773621,0.283803036
0.172574508,0.299759105
0.177532604,0.284476506
0.180069304,0.284735533
0.17773287,0.295329741
0.17297504,0.285124074
0.160934817,0.280060094
0.16350186,0.259415635
0.161226112,0.249171113
0.158950364,0.244120085
0.156674617,0.259881884
0.166566534,0.275682536
0.166742525,0.275915661
0.164491052,0.270916438
0.169540178,0.281471792
0.174546823,0.26596902
0.177101729,0.276317153
0.182029482,0.281471792
0.177192759,0.265813604
0.17233783,0.25019427
0.160170165,0.23976843
0.152845292,0.229394395
0.150393553,0.239910895
0.150369278,0.260905041
0.155193863,0.281925089
0.162451982,0.282184116
0.169685825,0.282391338
0.169588727,0.261720976
0.169473422,0.277353261
0.169315637,0.287779102
0.166706113,0.272250427
0.159223454,0.267160545
0.163914529,0.251644822
0.158883609,0.251709579
0.170899558,0.283013003
0.178054509,0.303942392
0.18765513,0.33011708
0.19481615,0.335478941
0.204416771,0.32523442
0.204252918,0.32017044
0.201619119,0.325467544
0.213568312,0.315210071
0.213337703,0.315313682
0.22282302,0.299849764
0.220152809,0.28432109
0.22721673,0.26874061
0.239165923,0.273960006
0.248736201,0.284450604
0.253536512,0.295018909
0.253603267,0.29005854
0.253839945,0.285007512
0.249458372,0.269517692
0.245349889,0.264272393
0.246393698,0.269478837
0.245295271,0.274827747
0.234717595,0.264881107
0.231580097,0.250142465
0.221117726,0.230534114
0.212918965,0.20095322
0.20197717,0.21310159
0.197947579,0.225275864
0.186235064,0.247552194
0.183922904,0.27456872
0.181380135,0.259506294
0.171366844,0.259596954
0.1637264,0.25420919
0.156104162,0.264259442
0.148536542,0.258806921
0.141029609,0.248355178
0.135998689,0.222491323
0.130998113,0.201937523
0.125961124,0.217777029
0.130621856,0.233577682
0.137691846,0.249339481
0.137412687,0.265062426
0.139542787,0.23919857
0.139227217,0.234043931
0.133983894,0.234018028
0.131155898,0.249546703
0.125851888,0.254662488
0.122999618,0.259765321
0.117689539,0.238900689
0.117252596,0.23881003
0.116839927,0.212777807
0.116421189,0.228384189
0.116002452,0.233642439
0.108252772,0.233720147
0.107773348,0.223384966
0.11211244,0.213023882
0.140762588,0.20784334
0.176682991,0.218230327
0.219903994,0.223475626
0.282629672,0.208024659
0.359974754,0.192586645
0.466552576,0.171993991
0.58290701,0.182614101
0.699297856,0.234756256
0.805978845,0.349181474
0.893203707,0.484380666
0.922048052,0.609141066
0.894933275,0.713166347
0.806980174,0.801559343
0.682524077,0.822423976
0.531323393,0.780927835
0.385026186,0.697870797
0.255800123,0.56290473
0.163107397,0.401971196
0.114230403,0.241076517
0.087273411,0.137336165
0.089530953,0.095917733
0.108823226,0.106460136
0.123254501,0.142957053
0.130373041,0.194969694
0.137467305,0.231388903
0.132393905,0.236608299
0.120032043,0.236673056
0.100369581,0.23154432
0.092905129,0.23164793
0.085452813,0.226493291
0.07803691,0.226558048
0.080355138,0.22141636
0.080251971,0.205900637
0.085034076,0.211197741
0.08252165,0.232010568
0.080003156,0.242358701
0.082345659,0.226726416
0.089549159,0.21109413
0.089452061,0.195526602
0.086885017,0.195617262
0.084281562,0.19560431
0.084044884,0.205991297
0.081277574,0.211145936
0.078407098,0.200797803
0.080227696,0.200927317
0.081872303,0.21672797
0.088123024,0.216974045
0.086757575,0.222193441
0.085100831,0.211547428
0.085610598,0.200564679
0.083559391,0.173742423
0.079044307,0.162280475
0.079535869,0.186952805
0.075439523,0.190669844
0.074128692,0.183973994
0.080427962,0.192988137
0.087073146,0.186745584
0.086684751,0.191252655
0.088924087,0.196187121
0.086399524,0.18585194
0.083935648,0.170491633
0.076592568,0.134473916
0.081411085,0.134875408
0.081350398,0.130031601
0.086132503,0.151129358
0.090932814,0.146194892
0.095745262,0.136092835
0.105467257,0.131210175
0.105503669,0.141946848
0.105527943,0.142374242
0.105564355,0.147930374
0.105582561,0.137880122
0.100703358,0.122597524
0.105546149,0.102134383
0.107973613,0.112896959
